#Wave	#Intensity
1219.256836	3480.293457
1218.177734	3482.056396
1217.098633	3491.818359
1216.018555	3473.944580
1214.938477	3472.332520
1213.858398	3466.006104
1212.778320	3468.733643
1211.697266	3476.564209
1210.616211	3486.151611
1209.535156	3462.713379
1208.454102	3469.088135
1207.372070	3480.105713
1206.290039	3474.114990
1205.208008	3489.071289
1204.125977	3489.486816
1203.042969	3497.402100
1201.960938	3478.078613
1200.877930	3490.741943
1199.793945	3484.088379
1198.710938	3482.091064
1197.626953	3482.282471
1196.542969	3487.463867
1195.458984	3491.793701
1194.374023	3496.298584
1193.290039	3498.823242
1192.205078	3501.544434
1191.119141	3513.406250
1190.034180	3503.086426
1188.948242	3502.101318
1187.862305	3509.461914
1186.776367	3514.620117
1185.690430	3518.502686
1184.603516	3526.607910
1183.516602	3519.882080
1182.429688	3521.755371
1181.342773	3513.719482
1180.254883	3527.897461
1179.166992	3529.777588
1178.079102	3529.591064
1176.991211	3543.704102
1175.902344	3545.703369
1174.813477	3542.276855
1173.724609	3529.114014
1172.635742	3533.841309
1171.545898	3539.151855
1170.457031	3524.132324
1169.367188	3539.389160
1168.276367	3541.182861
1167.186523	3547.408203
1166.095703	3540.982910
1165.004883	3550.621338
1163.914062	3549.119141
1162.822266	3550.379883
1161.730469	3544.056885
1160.638672	3532.647705
1159.546875	3534.086426
1158.455078	3537.204590
1157.362305	3541.876709
1156.269531	3536.103760
1155.176758	3536.398193
1154.083008	3533.748047
1152.990234	3541.823975
1151.896484	3539.560791
1150.802734	3535.270020
1149.708008	3540.295166
1148.613281	3531.181641
1147.519531	3524.212402
1146.423828	3534.656006
1145.329102	3526.708984
1144.233398	3541.879150
1143.137695	3537.876221
1142.041992	3532.442383
1140.946289	3547.260498
1139.849609	3529.187988
1138.752930	3511.581299
1137.656250	3520.622803
1136.559570	3518.697510
1135.461914	3520.240967
1134.364258	3529.253418
1133.266602	3526.864014
1132.168945	3540.323975
1131.070312	3540.626465
1129.972656	3524.053711
1128.874023	3525.983154
1127.774414	3527.048584
1126.675781	3529.951904
1125.576172	3534.954590
1124.476562	3553.668945
1123.375977	3541.553955
1122.276367	3550.409424
1121.175781	3545.452881
1120.075195	3545.633545
1118.974609	3562.180176
1117.873047	3555.403320
1116.771484	3558.282471
1115.669922	3555.881104
1114.568359	3550.000977
1113.466797	3553.780518
1112.364258	3573.785400
1111.261719	3571.304932
1110.159180	3565.507568
1109.055664	3567.134766
1107.952148	3574.196045
1106.848633	3579.964600
1105.745117	3582.292969
1104.641602	3581.525635
1103.537109	3586.689941
1102.432617	3611.216309
1101.328125	3608.239746
1100.222656	3609.750732
1099.117188	3603.474854
1098.011719	3603.586182
1096.906250	3614.344482
1095.800781	3600.438477
1094.694336	3609.788574
1093.587891	3611.127197
1092.481445	3610.271240
1091.374023	3609.114502
1090.267578	3609.809082
1089.160156	3622.852295
1088.051758	3629.792969
1086.944336	3625.395508
1085.835938	3624.286377
1084.727539	3627.849121
1083.619141	3616.013184
1082.510742	3614.793945
1081.401367	3613.020264
1080.291992	3617.710938
1079.182617	3607.418457
1078.072266	3607.930908
1076.962891	3620.345459
1075.852539	3615.438477
1074.742188	3609.791260
1073.630859	3620.803467
1072.519531	3609.063721
1071.409180	3607.526123
1070.296875	3603.281494
1069.185547	3600.561768
1068.073242	3596.426758
1066.960938	3619.477539
1065.848633	3602.656250
1064.736328	3599.689453
1063.623047	3598.534912
1062.509766	3604.101074
1061.396484	3602.631348
1060.282227	3610.378662
1059.168945	3603.038086
1058.054688	3587.298340
1056.940430	3601.487793
1055.825195	3594.801514
1054.710938	3583.413330
1053.595703	3612.524414
1052.479492	3603.455078
1051.364258	3597.648926
1050.248047	3603.624023
1049.131836	3606.631836
1048.015625	3596.493408
1046.899414	3603.394531
1045.782227	3604.003418
1044.665039	3608.311279
1043.547852	3609.676270
1042.429688	3613.945312
1041.312500	3612.337891
1040.194336	3623.643311
1039.076172	3619.721924
1037.957031	3616.478027
1036.837891	3633.068115
1035.718750	3636.890625
1034.599609	3630.295166
1033.480469	3626.929688
1032.360352	3648.573975
1031.240234	3631.595215
1030.120117	3637.484131
1028.999023	3646.876953
1027.878906	3647.414307
1026.757812	3645.352539
1025.635742	3657.848633
1024.514648	3653.524414
1023.392578	3660.954102
1022.270508	3657.717529
1021.148438	3646.306885
1020.025391	3663.364502
1018.903320	3656.689209
1017.780273	3670.066406
1016.656250	3672.384277
1015.533203	3677.766113
1014.409180	3688.084473
1013.285156	3666.656250
1012.161133	3678.272705
1011.036133	3676.537842
1009.912109	3688.387207
1008.787109	3695.187256
1007.661133	3686.514404
1006.536133	3690.050537
1005.410156	3687.781982
1004.284180	3696.981934
1003.158203	3685.222168
1002.031250	3692.849121
1000.904297	3694.684814
999.777344	3691.253906
998.650391	3688.255127
997.522461	3682.137451
996.394531	3682.005127
995.266602	3687.423584
994.138672	3681.274170
993.009766	3676.513184
991.881836	3668.412598
990.751953	3664.136230
989.623047	3690.051025
988.493164	3677.247803
987.364258	3671.666992
986.233398	3667.492432
985.103516	3672.176270
983.972656	3668.302490
982.841797	3661.658691
981.710938	3683.373291
980.580078	3673.868652
979.448242	3681.877930
978.316406	3682.479736
977.184570	3682.277832
976.052734	3687.077637
974.919922	3670.885498
973.787109	3671.832031
972.654297	3673.261230
971.520508	3685.416260
970.387695	3682.308350
969.253906	3688.414551
968.119141	3695.956543
966.985352	3678.287354
965.850586	3693.506836
964.715820	3692.140625
963.581055	3699.430176
962.445312	3698.515137
961.310547	3714.063477
960.173828	3715.531250
959.038086	3711.600342
957.902344	3720.227783
956.765625	3726.242676
955.628906	3713.778320
954.491211	3729.221191
953.354492	3734.186768
952.216797	3725.281738
951.079102	3749.489746
949.940430	3733.445312
948.802734	3737.650146
947.664062	3740.459473
946.525391	3754.378174
945.385742	3752.829590
944.247070	3748.308105
943.107422	3741.226807
941.967773	3752.625000
940.827148	3769.356689
939.686523	3743.919678
938.545898	3752.784180
937.405273	3785.543945
936.264648	3767.734375
935.123047	3756.863037
933.981445	3779.959717
932.839844	3764.619873
931.697266	3775.557129
930.554688	3775.294434
929.412109	3771.646484
928.269531	3771.364258
927.126953	3768.884033
925.983398	3766.107910
924.839844	3776.905029
923.695312	3771.482422
922.551758	3782.065430
921.407227	3781.177490
920.262695	3784.136963
919.117188	3779.283203
917.972656	3778.992188
916.827148	3778.138916
915.680664	3773.249268
914.535156	3775.052734
913.388672	3764.155762
912.242188	3780.281494
911.095703	3782.647461
909.949219	3778.553223
908.801758	3770.183838
907.654297	3777.061523
906.506836	3772.601562
905.358398	3772.815430
904.209961	3776.495850
903.061523	3778.428955
901.913086	3772.137939
900.763672	3776.900879
899.614258	3765.532471
898.464844	3792.033447
897.315430	3786.038330
896.165039	3791.970947
895.014648	3786.547363
893.864258	3791.406494
892.713867	3786.352783
891.562500	3795.403076
890.411133	3799.505859
889.259766	3815.113770
888.107422	3812.155762
886.955078	3825.748779
885.802734	3818.692871
884.650391	3833.345459
883.498047	3839.371582
882.344727	3829.706787
881.191406	3838.344482
880.037109	3840.918701
878.883789	3848.722412
877.729492	3842.345215
876.575195	3854.683105
875.419922	3862.120361
874.264648	3862.690430
873.110352	3857.286865
871.954102	3869.750732
870.798828	3861.592285
869.642578	3864.651367
868.486328	3879.726318
867.330078	3881.485352
866.172852	3881.735352
865.015625	3890.524414
863.858398	3871.675781
862.701172	3894.866455
861.542969	3882.661865
860.385742	3887.355713
859.226562	3888.128174
858.068359	3889.528809
856.909180	3901.155029
855.750000	3902.975098
854.590820	3901.292236
853.431641	3897.029541
852.271484	3887.759277
851.111328	3887.135986
849.951172	3899.382324
848.790039	3899.563721
847.628906	3893.436768
846.467773	3891.489014
845.306641	3898.291748
844.144531	3902.199707
842.982422	3903.291748
841.820312	3893.258301
840.658203	3888.945801
839.495117	3883.425537
838.332031	3890.748047
837.168945	3895.562500
836.004883	3878.426758
834.841797	3896.630859
833.676758	3896.152832
832.512695	3909.014893
831.348633	3894.309326
830.183594	3895.348145
829.018555	3910.187256
827.852539	3895.325684
826.687500	3912.952148
825.521484	3905.751953
824.354492	3915.059570
823.188477	3914.768555
822.021484	3911.510986
820.854492	3922.991943
819.687500	3911.524658
818.519531	3923.768311
817.352539	3933.375977
816.183594	3931.750000
815.015625	3930.926514
813.846680	3924.691650
812.677734	3945.616455
811.508789	3956.326904
810.339844	3952.267090
809.169922	3951.312500
808.000000	3964.986328
806.830078	3983.497803
805.659180	3967.340088
804.488281	3972.434326
803.317383	3974.849609
802.146484	3989.821533
800.974609	3992.587646
799.802734	4000.074463
798.630859	3990.446045
797.458984	3995.101807
796.286133	4013.170410
795.113281	4012.373535
793.940430	4025.365967
792.766602	4018.007324
791.593750	4018.545898
790.418945	4029.848389
789.245117	4023.800537
788.070312	4022.360596
786.896484	4023.559570
785.720703	4023.090332
784.545898	4019.310791
783.370117	4023.452881
782.194336	4029.840088
781.018555	4028.739502
779.841797	4036.897705
778.665039	4034.096436
777.488281	4043.769775
776.311523	4031.623535
775.133789	4043.738281
773.956055	4045.064209
772.778320	4043.484619
771.600586	4041.454834
770.421875	4027.385254
769.243164	4024.741211
768.064453	4044.419678
766.884766	4035.370850
765.705078	4027.129883
764.525391	4022.778320
763.345703	4036.217773
762.165039	4034.768799
760.984375	4030.637451
759.803711	4038.742920
758.622070	4039.979980
757.440430	4037.368652
756.258789	4052.389160
755.077148	4052.598877
753.894531	4046.284180
752.711914	4056.005371
751.529297	4077.847168
750.346680	4066.637939
749.163086	4053.419922
747.979492	4066.897705
746.795898	4077.831787
745.611328	4071.604492
744.426758	4083.890381
743.242188	4080.947510
742.057617	4081.874756
740.872070	4080.819336
739.686523	4093.614014
738.500977	4106.664551
737.314453	4096.862793
736.128906	4116.349609
734.942383	4113.848633
733.754883	4108.065918
732.568359	4116.197266
731.380859	4126.088379
730.192383	4120.657227
729.004883	4127.747559
727.816406	4145.059570
726.627930	4161.270996
725.439453	4155.621582
724.250000	4155.924316
723.060547	4161.871094
721.871094	4156.736816
720.681641	4164.478027
719.491211	4173.543945
718.300781	4176.818848
717.110352	4170.769043
715.918945	4184.945801
714.727539	4183.242676
713.536133	4185.041504
712.344727	4195.068359
711.152344	4185.447754
709.959961	4192.812500
708.767578	4199.846680
707.574219	4217.796875
706.381836	4211.031738
705.188477	4204.529785
703.994141	4202.197266
702.800781	4210.831543
701.606445	4212.639648
700.411133	4196.811035
699.216797	4217.768555
698.021484	4227.112793
696.826172	4215.673828
695.630859	4220.314453
694.434570	4225.462402
693.238281	4229.470215
692.041992	4223.051270
690.844727	4231.161133
689.648438	4252.040527
688.451172	4236.489746
687.252930	4242.114746
686.055664	4251.145020
684.857422	4246.484863
683.659180	4261.219238
682.459961	4261.899902
681.260742	4260.465332
680.061523	4258.889648
678.862305	4266.940430
677.662109	4266.520996
676.462891	4279.242188
675.261719	4283.503906
674.061523	4294.168945
672.860352	4300.286133
671.659180	4301.310059
670.458008	4286.683594
669.255859	4286.647461
668.053711	4300.265625
666.851562	4306.503906
665.649414	4304.851074
664.446289	4305.818359
663.243164	4310.524414
662.040039	4309.067871
660.835938	4309.459473
659.631836	4328.857910
658.427734	4320.340332
657.222656	4333.979492
656.018555	4341.565918
654.813477	4340.125000
653.607422	4326.880371
652.402344	4344.441895
651.196289	4343.257324
649.990234	4358.812012
648.783203	4349.022461
647.576172	4357.984375
646.369141	4349.728516
645.162109	4360.654297
643.954102	4367.619141
642.746094	4368.265137
641.538086	4368.181641
640.330078	4358.925781
639.121094	4356.134277
637.912109	4366.176758
636.703125	4365.363770
635.493164	4354.253418
634.283203	4364.646973
633.073242	4374.792969
631.862305	4365.664551
630.651367	4363.708008
629.440430	4363.994141
628.229492	4368.307129
627.017578	4366.895020
625.805664	4390.637207
624.593750	4388.837891
623.380859	4381.897461
622.168945	4387.190430
620.955078	4410.415527
619.742188	4398.219727
618.528320	4406.388672
617.314453	4404.390137
616.100586	4421.383789
614.885742	4435.621582
613.671875	4426.216309
612.456055	4438.958496
611.241211	4442.652832
610.025391	4441.695312
608.809570	4424.935059
607.593750	4438.127930
606.376953	4456.967773
605.160156	4454.108398
603.943359	4458.733398
602.726562	4469.213867
601.508789	4461.891113
600.291016	4471.725098
599.072266	4489.202148
597.854492	4481.785645
596.635742	4477.717285
595.416016	4477.059570
594.197266	4483.264160
592.977539	4482.058105
591.757812	4490.586426
590.537109	4488.910645
589.317383	4493.693848
588.096680	4508.081543
586.875000	4495.641113
585.654297	4503.747070
584.432617	4506.976562
583.210938	4509.964355
581.988281	4510.658203
580.765625	4504.007812
579.542969	4515.018066
578.320312	4516.018555
577.096680	4517.027344
575.873047	4538.657227
574.649414	4526.801758
573.425781	4523.963867
572.201172	4524.179199
570.976562	4527.750488
569.750977	4531.310547
568.525391	4550.774902
567.299805	4539.335938
566.074219	4551.432617
564.847656	4559.006348
563.621094	4559.744141
562.394531	4560.955078
561.167969	4569.449219
559.940430	4580.777344
558.712891	4578.140625
557.484375	4578.687012
556.256836	4591.281250
555.028320	4586.652832
553.798828	4598.843262
552.570312	4596.175781
551.340820	4598.492188
550.111328	4616.051270
548.880859	4611.011230
547.650391	4610.659180
546.419922	4601.703613
545.189453	4614.775391
543.958008	4622.979004
542.726562	4622.407227
541.495117	4613.455566
540.262695	4633.645996
539.031250	4639.118652
537.797852	4638.843750
536.565430	4642.108887
535.332031	4655.165527
534.098633	4676.171387
532.865234	4657.516113
531.630859	4680.546387
530.396484	4665.041016
529.162109	4679.656738
527.926758	4671.299316
526.691406	4674.830078
525.456055	4676.841797
524.220703	4682.045410
522.984375	4676.886230
521.748047	4668.550781
520.510742	4682.394043
519.274414	4684.668457
518.037109	4677.677246
516.798828	4680.708008
515.561523	4692.831543
514.323242	4685.358887
513.084961	4682.685547
511.845703	4674.770996
510.606445	4672.396484
509.367188	4694.788086
508.127930	4698.580566
506.887695	4706.082031
505.647461	4707.606445
504.407227	4700.331543
503.166016	4715.889160
501.925781	4715.298340
500.683594	4725.713379
499.442383	4715.942871
498.200195	4717.841797
496.958008	4722.898438
495.714844	4743.337402
494.472656	4740.020996
493.229492	4724.043457
491.985352	4747.100098
490.742188	4763.730469
489.498047	4752.363770
488.253906	4767.015137
487.008789	4766.843262
485.763672	4787.614258
484.518555	4788.461426
483.272461	4795.173340
482.027344	4803.427246
480.781250	4813.778809
479.534180	4824.441895
478.288086	4830.778809
477.041016	4838.285156
475.792969	4822.946777
474.545898	4833.328613
473.297852	4833.538574
472.049805	4844.219727
470.800781	4841.866211
469.551758	4850.066406
468.302734	4848.778320
467.053711	4838.484863
465.803711	4832.459961
464.553711	4857.301270
463.303711	4846.478516
462.052734	4842.734863
460.801758	4842.432129
459.550781	4847.476074
458.298828	4854.416504
457.046875	4848.908691
455.794922	4858.554688
454.541992	4854.675293
453.290039	4839.719238
452.036133	4844.190430
450.783203	4839.743652
449.529297	4843.918945
448.275391	4840.387695
447.021484	4855.539551
445.766602	4865.161621
444.511719	4872.298828
443.256836	4864.974609
442.000977	4859.762207
440.746094	4880.176758
439.489258	4882.101074
438.233398	4878.473145
436.976562	4897.537109
435.719727	4900.038086
434.461914	4897.157715
433.205078	4900.671387
431.947266	4903.455566
430.688477	4916.600098
429.429688	4928.652344
428.170898	4941.285156
426.912109	4944.692383
425.653320	4939.004395
424.393555	4962.319336
423.132812	4963.153809
421.873047	4964.166992
420.612305	4983.601074
419.351562	4966.570312
418.089844	4998.667480
416.829102	5008.508301
415.566406	4999.541504
414.304688	5017.729004
413.041992	5036.917480
411.779297	5019.936035
410.516602	5038.179688
409.252930	5053.647949
407.989258	5075.729492
406.725586	5092.461914
405.460938	5078.330078
404.196289	5098.660645
402.931641	5094.161621
401.666992	5114.753906
400.401367	5098.611816
399.135742	5104.757324
397.869141	5122.833496
396.602539	5124.091797
395.335938	5130.840820
394.069336	5140.037109
392.801758	5154.846191
391.534180	5155.372070
390.266602	5145.734863
388.998047	5136.961426
387.729492	5131.850586
386.460938	5127.186523
385.191406	5130.585449
383.921875	5129.071777
382.652344	5122.622559
381.381836	5109.094238
380.111328	5089.589844
378.840820	5080.105469
377.570312	5086.910645
376.298828	5078.238770
375.027344	5082.970703
373.754883	5079.567871
372.483398	5083.284668
371.209961	5072.414551
369.937500	5075.012695
368.664062	5071.617188
367.390625	5075.299316
366.117188	5069.387207
364.842773	5079.585938
363.568359	5088.822266
362.293945	5091.139160
361.018555	5075.882812
359.743164	5080.520508
358.467773	5065.990234
357.192383	5078.614746
355.916016	5075.571289
354.638672	5076.700195
353.362305	5077.699219
352.084961	5085.041504
350.807617	5068.124023
349.529297	5073.970215
348.251953	5085.242676
346.972656	5074.333984
345.694336	5090.778809
344.415039	5093.350098
343.135742	5079.034180
341.856445	5094.277832
340.576172	5082.781738
339.295898	5084.979980
338.015625	5089.839844
336.734375	5089.248047
335.453125	5101.101562
334.171875	5106.062500
332.889648	5115.099121
331.607422	5110.911133
330.325195	5113.522461
329.041992	5114.125000
327.758789	5112.156738
326.475586	5121.926270
325.192383	5111.502930
323.908203	5114.772461
322.624023	5128.520020
321.338867	5134.569336
320.053711	5150.277344
318.768555	5158.079102
317.483398	5144.066406
316.197266	5157.599121
314.911133	5160.646484
313.624023	5166.592285
312.336914	5189.366211
311.049805	5175.562012
309.762695	5197.913574
308.474609	5207.227539
307.186523	5219.937988
305.898438	5218.031738
304.609375	5231.096191
303.320312	5244.981445
302.031250	5261.955078
300.741211	5250.516602
299.451172	5258.231445
298.161133	5238.843262
296.870117	5237.225098
295.579102	5217.255371
294.288086	5197.006348
292.996094	5196.735840
291.704102	5209.772949
290.412109	5194.109863
289.120117	5184.167480
287.827148	5178.465332
286.533203	5179.830566
285.240234	5174.768555
283.946289	5179.366699
282.652344	5181.758789
281.357422	5185.932617
280.062500	5183.528320
278.767578	5182.620117
277.472656	5179.349609
276.176758	5181.980469
274.880859	5186.011719
273.583984	5214.662598
272.287109	5198.674805
270.990234	5199.054199
269.693359	5216.354980
268.395508	5213.030273
267.097656	5201.602539
265.799805	5212.947266
264.500977	5219.838379
263.202148	5212.001953
261.902344	5198.893555
260.603516	5198.212402
259.303711	5195.429199
258.002930	5208.827148
256.702148	5216.986816
255.401367	5202.649414
254.100586	5222.756348
252.798828	5221.057129
251.497070	5229.594238
250.195312	5238.503906
248.892578	5241.560547
247.589844	5243.817383
246.287109	5218.757324
244.983398	5225.263672
243.679688	5243.520020
242.375977	5230.293457
241.071289	5222.176270
239.766602	5221.164551
238.461914	5221.533203
237.156250	5216.441895
235.850586	5216.927734
234.544922	5221.848145
233.239258	5226.990723
231.932617	5237.929199
230.625000	5236.035156
229.318359	5227.079590
228.010742	5220.645508
226.702148	5237.470215
225.394531	5232.494629
224.085938	5240.254395
222.777344	5216.009766
221.467773	5223.764648
220.158203	5214.143066
218.848633	5213.789062
217.538086	5228.208984
216.227539	5216.493652
214.916992	5217.590332
213.606445	5211.093262
212.294922	5222.583008
210.982422	5221.179199
209.670898	5196.361328
208.358398	5216.057617
207.045898	5223.274414
205.732422	5217.651855
204.418945	5207.311035
203.105469	5228.831543
201.791992	5215.015625
200.477539	5219.979492
199.162109	5232.155273
197.847656	5221.916016
196.532227	5229.744629
195.216797	5222.960449
193.900391	5216.028809
192.583984	5211.343750
191.267578	5217.163086
189.951172	5221.195312
188.633789	5204.822266
187.315430	5209.154785
185.998047	5213.424316
184.679688	5198.494629
183.361328	5200.404785
182.041992	5197.047852
180.722656	5197.419922
179.403320	5185.412109
178.083984	5187.479980
176.763672	5176.651855
175.443359	5170.643555
174.122070	5182.795898
172.800781	5194.459473
171.479492	5185.885742
170.157227	5175.979492
168.834961	5186.639160
167.512695	5187.363281
166.190430	5188.000488
164.867188	5191.948730
163.542969	5186.799316
162.219727	5172.221191
160.895508	5186.419922
159.571289	5195.163086
158.246094	5179.224609
156.920898	5167.801758
155.595703	5174.305176
154.269531	5175.715820
152.943359	5158.084473
151.617188	5168.921875
150.291016	5166.054688
148.963867	5171.514648
147.635742	5177.320312
146.308594	5170.479980
144.980469	5164.471191
143.652344	5158.346680
142.323242	5157.850586
140.994141	5140.866211
139.665039	5146.371094
138.334961	5155.741211
137.004883	5158.084473
135.674805	5133.688477
134.343750	5151.670898
133.012695	5133.586914
131.681641	5135.681641
130.349609	5150.795898
129.017578	5140.180664
127.685547	5125.582520
126.352539	5131.437500
125.019531	5114.213379
123.686523	5105.534180
122.352539	5109.754395
121.018555	5099.213867
119.684570	5103.606445
118.349609	5084.593262
117.014648	5082.752441
115.679688	5082.907715
114.343750	5082.208496
113.007812	5077.723145
111.671875	5080.912109
110.334961	5072.195312
108.998047	5075.590332
107.660156	5069.808594
106.323242	5069.693848
104.984375	5073.782227
103.646484	5066.097168
102.307617	5060.790039
100.968750	5065.082520
99.629883	5060.886719
98.290039	5072.531250
96.950195	5069.868164
95.609375	5067.648438
94.268555	5065.627441
92.927734	5064.251465
91.586914	5044.711426
90.245117	5033.185547
88.903320	5018.601562
87.560547	5021.124023
86.217773	5010.973633
84.875000	5001.160156
83.532227	5006.566895
82.188477	5014.886719
80.843750	5005.200684
79.500000	4989.416016
78.155273	4985.274414
76.810547	4971.269043
75.464844	4968.803711
74.119141	4953.621094
72.773438	4944.763184
71.426758	4946.385742
70.080078	4929.546387
68.733398	4919.811523
67.385742	4904.188965
66.038086	4887.539062
64.690430	4874.285156
63.341797	4844.007324
61.993164	4845.083984
60.644531	4789.802734
59.294922	4731.681641
57.945312	4573.756348
56.595703	4317.640137
55.245117	3956.289551
53.894531	3513.828369
52.542969	2994.981201
51.191406	2505.539307
49.839844	2037.690186
48.488281	1606.702637
47.135742	1202.324341
45.783203	850.055847
44.429688	551.143555
43.077148	324.989197
41.722656	174.996201
40.369141	90.299355
39.014648	48.688232
37.660156	29.829178
36.304688	21.671501
34.949219	18.366829
33.593750	16.117472
32.237305	15.301541
30.880859	14.161330
29.524414	13.521078
28.166992	13.243114
26.809570	12.852981
25.452148	13.207412
24.093750	12.447465
22.735352	12.273952
21.376953	11.984174
20.017578	12.101666
18.658203	11.878528
17.298828	12.332322
15.938477	12.221318
14.578125	12.637449
13.216797	12.464185
11.855469	12.817823
10.494141	12.880986
9.132812	13.914303
7.770508	15.208242
6.408203	18.362209
5.044922	27.534382
3.681641	52.118393
2.318359	101.241776
0.954102	191.582428
-0.410156	343.191376
-1.774414	421.298767
-3.138672	338.333466
-4.503906	140.471878
-5.870117	40.640491
-7.235352	19.730263
-8.602539	14.460297
-9.968750	12.866004
-11.335938	11.921015
