#Wave	#Intensity
1241.645508	2006.059570
1240.570312	2003.285400
1239.496094	2007.494629
1238.420898	1997.637085
1237.345703	1998.884033
1236.269531	1997.862427
1235.194336	1999.061401
1234.118164	2001.854858
1233.041992	2011.509155
1231.964844	1989.887695
1230.888672	1992.271973
1229.811523	1998.550537
1228.734375	1995.957397
1227.657227	2001.273193
1226.579102	1999.602539
1225.500977	2002.175415
1224.422852	1995.765381
1223.344727	2001.578857
1222.266602	1994.098389
1221.187500	1988.301025
1220.108398	1989.533447
1219.029297	1991.403564
1217.949219	1995.961060
1216.870117	1991.496216
1215.790039	1990.075806
1214.709961	1993.260986
1213.628906	2001.832275
1212.548828	1995.504395
1211.467773	1997.479248
1210.386719	1990.355713
1209.304688	1996.836548
1208.223633	1998.668579
1207.141602	1996.835938
1206.059570	1997.686035
1204.977539	1997.919922
1203.894531	1992.155762
1202.811523	2003.231567
1201.728516	2003.307373
1200.645508	2004.050293
1199.561523	2016.340576
1198.478516	2015.100220
1197.394531	2012.766602
1196.309570	2010.918091
1195.225586	2008.580933
1194.140625	2016.775146
1193.055664	2006.943237
1191.970703	2016.190308
1190.885742	2021.708618
1189.799805	2031.868774
1188.713867	2019.015381
1187.627930	2028.880371
1186.541016	2034.645264
1185.455078	2034.717529
1184.368164	2032.529785
1183.281250	2030.612915
1182.193359	2029.428955
1181.106445	2036.588623
1180.018555	2036.893433
1178.930664	2038.355225
1177.841797	2041.922729
1176.753906	2039.989990
1175.665039	2045.972168
1174.576172	2048.876709
1173.487305	2055.688721
1172.397461	2050.867432
1171.307617	2049.913574
1170.217773	2051.021973
1169.127930	2060.810303
1168.037109	2058.057617
1166.947266	2062.911377
1165.856445	2060.366455
1164.764648	2056.792480
1163.673828	2064.260742
1162.582031	2055.814697
1161.490234	2056.603271
1160.398438	2057.013916
1159.305664	2052.560059
1158.213867	2062.506592
1157.121094	2061.912842
1156.027344	2060.379150
1154.934570	2073.730957
1153.840820	2068.802490
1152.747070	2057.939209
1151.653320	2058.296387
1150.559570	2052.620605
1149.464844	2055.475586
1148.370117	2059.809326
1147.275391	2065.982178
1146.180664	2063.660645
1145.084961	2068.375977
1143.989258	2068.770508
1142.893555	2063.558838
1141.797852	2066.689453
1140.701172	2062.839844
1139.604492	2064.759033
1138.507812	2054.584473
1137.411133	2057.528320
1136.313477	2055.289062
1135.215820	2065.407959
1134.118164	2064.746826
1133.020508	2061.622559
1131.921875	2054.515137
1130.823242	2062.250000
1129.724609	2061.476562
1128.625977	2068.188965
1127.526367	2068.698486
1126.426758	2068.313965
1125.327148	2073.346191
1124.227539	2078.124756
1123.127930	2078.944092
1122.027344	2075.529785
1120.926758	2075.651367
1119.825195	2076.306152
1118.724609	2069.699463
1117.623047	2078.978027
1116.521484	2075.894775
1115.419922	2080.217285
1114.317383	2080.695557
1113.214844	2086.864014
1112.112305	2094.135986
1111.009766	2096.745361
1109.907227	2095.248291
1108.803711	2095.440430
1107.700195	2098.420898
1106.596680	2094.177002
1105.492188	2097.248047
1104.387695	2096.595459
1103.283203	2103.140625
1102.178711	2100.401367
1101.074219	2103.330078
1099.968750	2109.005859
1098.863281	2109.060547
1097.757812	2107.843506
1096.651367	2115.515381
1095.545898	2112.612793
1094.439453	2114.799072
1093.332031	2116.423096
1092.225586	2116.235596
1091.118164	2110.346191
1090.010742	2124.140381
1088.903320	2118.955078
1087.795898	2119.846924
1086.687500	2112.055664
1085.579102	2128.974854
1084.470703	2122.600586
1083.361328	2131.622070
1082.252930	2124.374023
1081.143555	2117.307373
1080.033203	2114.818115
1078.923828	2113.255859
1077.813477	2111.333008
1076.703125	2125.165283
1075.592773	2122.721680
1074.482422	2118.306885
1073.371094	2117.532471
1072.259766	2119.329102
1071.148438	2115.191895
1070.036133	2119.146240
1068.924805	2120.438477
1067.812500	2111.114990
1066.700195	2114.082764
1065.586914	2116.658447
1064.473633	2116.919434
1063.360352	2119.594238
1062.247070	2118.049072
1061.133789	2113.928711
1060.019531	2123.064697
1058.905273	2129.505615
1057.791016	2120.602539
1056.676758	2110.604004
1055.561523	2125.530273
1054.446289	2109.479248
1053.331055	2119.180420
1052.214844	2120.298828
1051.099609	2116.700928
1049.983398	2119.270752
1048.866211	2123.887939
1047.750000	2122.768799
1046.632812	2123.929688
1045.515625	2125.287354
1044.398438	2120.327881
1043.281250	2127.757568
1042.163086	2125.961182
1041.044922	2134.270020
1039.926758	2136.016846
1038.807617	2144.975586
1037.689453	2149.630615
1036.570312	2138.355469
1035.450195	2147.614990
1034.331055	2143.753174
1033.210938	2156.894531
1032.090820	2156.091797
1030.970703	2152.804688
1029.849609	2158.014160
1028.729492	2160.289307
1027.608398	2164.461914
1026.486328	2161.628418
1025.365234	2169.382812
1024.243164	2171.934570
1023.121094	2174.027100
1021.999023	2173.603027
1020.875977	2170.628906
1019.753906	2176.038818
1018.630859	2177.469238
1017.506836	2176.938721
1016.383789	2176.910645
1015.259766	2177.701416
1014.135742	2175.161377
1013.011719	2189.204834
1011.886719	2182.405273
1010.761719	2178.304199
1009.636719	2183.057617
1008.511719	2183.488770
1007.385742	2183.914307
1006.260742	2181.556152
1005.134766	2188.976562
1004.007812	2185.685547
1002.881836	2195.432129
1001.754883	2192.781982
1000.627930	2195.273193
999.500000	2194.522217
998.373047	2184.247314
997.245117	2183.904297
996.117188	2178.981445
994.988281	2190.014160
993.860352	2185.507080
992.731445	2187.594482
991.602539	2191.546143
990.472656	2175.856689
989.343750	2194.974854
988.213867	2193.664307
987.083984	2199.763916
985.953125	2191.778564
984.823242	2197.156494
983.692383	2195.645996
982.560547	2188.460205
981.429688	2188.614014
980.297852	2193.447998
979.166016	2190.442383
978.034180	2195.737549
976.902344	2197.444580
975.769531	2191.159180
974.636719	2200.916016
973.503906	2193.217041
972.370117	2190.737549
971.236328	2199.590820
970.102539	2209.655029
968.968750	2205.629639
967.834961	2202.994385
966.700195	2204.242188
965.565430	2206.772705
964.429688	2215.470215
963.294922	2202.649170
962.159180	2212.372559
961.023438	2230.711426
959.887695	2218.466553
958.750977	2219.061523
957.614258	2234.360840
956.477539	2220.970459
955.340820	2231.753418
954.203125	2239.135498
953.065430	2240.806396
951.927734	2241.707031
950.790039	2236.167725
949.651367	2238.556641
948.512695	2244.683350
947.374023	2248.829102
946.234375	2259.684326
945.095703	2252.718750
943.956055	2268.492432
942.815430	2255.821533
941.675781	2262.960205
940.535156	2262.540039
939.394531	2261.936768
938.253906	2264.060547
937.112305	2259.389404
935.971680	2270.480957
934.830078	2269.272217
933.687500	2268.137939
932.545898	2268.551270
931.403320	2272.201660
930.260742	2269.031250
929.117188	2275.361816
927.974609	2271.431152
926.831055	2272.197754
925.687500	2272.213623
924.542969	2272.727783
923.399414	2267.388916
922.254883	2276.172119
921.110352	2275.525391
919.964844	2279.632324
918.819336	2273.438232
917.673828	2273.393311
916.528320	2266.246582
915.382812	2273.218994
914.236328	2272.734863
913.089844	2274.304688
911.943359	2277.582031
910.795898	2275.590332
909.648438	2270.760010
908.500977	2283.241211
907.353516	2284.446777
906.205078	2279.312012
905.056641	2279.155273
903.908203	2286.957520
902.759766	2288.155273
901.610352	2285.642578
900.460938	2286.662842
899.311523	2288.993896
898.162109	2287.695068
897.011719	2291.845703
895.861328	2297.403076
894.710938	2294.370117
893.559570	2295.817627
892.408203	2298.010010
891.256836	2299.989990
890.105469	2309.725342
888.953125	2311.402344
887.801758	2308.481934
886.648438	2316.218994
885.496094	2314.655273
884.342773	2310.883301
883.190430	2313.575684
882.036133	2318.905029
880.882812	2326.835449
879.728516	2332.584717
878.574219	2335.895264
877.419922	2337.604736
876.265625	2324.356201
875.110352	2337.530518
873.955078	2345.742676
872.799805	2346.143066
871.643555	2349.791504
870.487305	2351.274658
869.331055	2347.776123
868.174805	2355.604736
867.017578	2359.783936
865.860352	2352.088867
864.703125	2354.593018
863.545898	2351.618652
862.387695	2359.246338
861.229492	2359.026367
860.071289	2356.383789
858.912109	2372.088867
857.753906	2357.235107
856.594727	2372.957031
855.434570	2368.623047
854.275391	2367.655029
853.115234	2368.979736
851.955078	2364.580566
850.793945	2372.969482
849.633789	2370.395264
848.472656	2380.315186
847.311523	2378.002686
846.149414	2366.450195
844.987305	2380.003662
843.826172	2372.473877
842.663086	2373.399414
841.500977	2373.940430
840.337891	2372.374023
839.174805	2366.798340
838.011719	2368.475586
836.847656	2380.060059
835.683594	2381.422607
834.519531	2377.047119
833.355469	2375.863770
832.190430	2380.837158
831.025391	2389.486816
829.860352	2377.912109
828.694336	2379.611084
827.528320	2380.747314
826.362305	2386.027832
825.196289	2389.800049
824.030273	2395.554932
822.863281	2383.635010
821.696289	2395.914307
820.528320	2398.741699
819.361328	2402.936035
818.193359	2408.090088
817.024414	2409.747314
815.856445	2408.697266
814.687500	2415.797852
813.518555	2419.683105
812.349609	2419.895996
811.179688	2416.613281
810.009766	2426.687744
808.839844	2421.030273
807.669922	2425.593750
806.499023	2437.665039
805.328125	2437.708496
804.157227	2440.432129
802.986328	2445.492188
801.814453	2452.361816
800.642578	2446.913086
799.470703	2455.474121
798.297852	2460.742188
797.125000	2461.462158
795.952148	2456.920166
794.779297	2462.246094
793.605469	2461.593262
792.431641	2468.396729
791.257812	2468.179932
790.083008	2473.021484
788.909180	2467.058838
787.734375	2472.469727
786.558594	2475.441895
785.383789	2471.499512
784.208008	2476.285645
783.032227	2477.467773
781.855469	2479.201416
780.679688	2482.954590
779.502930	2478.716309
778.326172	2486.645752
777.148438	2485.823242
775.970703	2494.302979
774.792969	2486.623291
773.615234	2481.304932
772.436523	2486.645508
771.257812	2491.480225
770.079102	2486.475098
768.900391	2487.323242
767.720703	2488.237793
766.541016	2484.035400
765.361328	2485.523926
764.180664	2482.079346
763.000000	2495.462646
761.819336	2490.218994
760.638672	2494.438477
759.457031	2487.409180
758.275391	2491.072754
757.093750	2494.356934
755.912109	2494.367432
754.729492	2499.391846
753.546875	2496.717529
752.363281	2507.561768
751.180664	2512.770020
749.997070	2512.689209
748.813477	2509.197754
747.628906	2514.301025
746.445312	2518.424072
745.260742	2517.807373
744.075195	2522.380127
742.890625	2529.108887
741.705078	2524.945312
740.519531	2531.241211
739.333984	2536.634277
738.147461	2542.233887
736.960938	2540.839844
735.774414	2535.896973
734.586914	2550.258789
733.399414	2552.315674
732.211914	2559.539551
731.024414	2559.910156
729.835938	2557.086914
728.647461	2562.394043
727.458984	2567.180664
726.270508	2568.426758
725.081055	2559.321533
723.891602	2579.223389
722.702148	2580.260986
721.511719	2577.720459
720.321289	2582.946045
719.130859	2583.236816
717.940430	2586.912598
716.749023	2587.135498
715.557617	2587.917236
714.366211	2606.025391
713.173828	2593.879395
711.981445	2596.912354
710.789062	2604.579346
709.596680	2607.475342
708.403320	2618.600098
707.209961	2619.239014
706.016602	2614.721191
704.822266	2618.084229
703.627930	2613.364990
702.433594	2613.696045
701.239258	2624.225830
700.043945	2620.660400
698.848633	2628.046387
697.653320	2633.393066
696.458008	2636.461426
695.261719	2627.452637
694.065430	2623.143799
692.868164	2627.197510
691.671875	2635.560791
690.474609	2631.242676
689.276367	2635.493896
688.079102	2638.154053
686.880859	2637.560791
685.682617	2631.506836
684.484375	2649.470459
683.285156	2636.709229
682.085938	2649.747070
680.886719	2658.979736
679.686523	2655.557129
678.487305	2653.693359
677.287109	2662.212158
676.085938	2661.043213
674.885742	2671.098145
673.684570	2665.719727
672.482422	2673.310303
671.281250	2670.644775
670.079102	2680.062256
668.876953	2683.181641
667.674805	2690.544189
666.471680	2690.593994
665.268555	2691.107910
664.065430	2690.865967
662.861328	2692.209473
661.657227	2691.713867
660.453125	2690.462891
659.249023	2700.978760
658.043945	2706.174805
656.838867	2703.449463
655.633789	2698.148682
654.428711	2698.076660
653.222656	2704.929688
652.016602	2706.896484
650.809570	2718.091553
649.603516	2713.592285
648.396484	2715.522217
647.188477	2716.988037
645.981445	2732.751465
644.773438	2722.941406
643.565430	2728.516357
642.357422	2724.883789
641.148438	2734.542725
639.939453	2736.789551
638.730469	2732.829834
637.520508	2740.023926
636.310547	2742.850586
635.100586	2740.267822
633.890625	2725.440918
632.679688	2733.062500
631.468750	2742.018555
630.256836	2742.471924
629.045898	2744.141357
627.833984	2746.932617
626.622070	2737.862305
625.409180	2747.247559
624.197266	2756.968262
622.983398	2756.005371
621.770508	2754.065430
620.556641	2758.346924
619.343750	2760.333008
618.128906	2757.950684
616.915039	2767.723145
615.700195	2768.979492
614.485352	2770.746338
613.270508	2775.852539
612.054688	2779.952881
610.838867	2792.489014
609.623047	2784.562256
608.406250	2791.933838
607.189453	2791.430908
605.972656	2788.589600
604.755859	2799.057373
603.538086	2798.909424
602.320312	2803.355957
601.102539	2818.878662
599.883789	2807.917969
598.665039	2809.930664
597.446289	2811.580811
596.226562	2810.863281
595.007812	2815.169434
593.787109	2827.680176
592.567383	2821.831055
591.346680	2828.295898
590.125977	2831.658447
588.905273	2834.653564
587.684570	2829.995605
586.462891	2830.451416
585.241211	2840.814941
584.018555	2836.083740
582.795898	2836.204590
581.573242	2838.712646
580.350586	2843.938477
579.127930	2847.065918
577.904297	2840.422363
576.679688	2844.960449
575.456055	2857.415771
574.231445	2851.174805
573.006836	2843.087891
571.782227	2844.937256
570.556641	2855.034180
569.331055	2859.998291
568.105469	2855.296631
566.878906	2853.285889
565.652344	2855.695557
564.425781	2864.289795
563.198242	2867.008057
561.971680	2860.749268
560.744141	2871.257812
559.515625	2885.278809
558.288086	2877.511475
557.059570	2889.248779
555.830078	2885.706299
554.601562	2895.055664
553.372070	2899.348389
552.142578	2901.737793
550.912109	2903.836426
549.682617	2910.463867
548.452148	2907.240723
547.220703	2903.872070
545.990234	2910.016846
544.758789	2910.633301
543.526367	2912.436279
542.294922	2918.252930
541.062500	2928.868652
539.830078	2923.642578
538.596680	2926.712891
537.364258	2933.018555
536.130859	2930.454102
534.896484	2941.189941
533.663086	2937.773193
532.428711	2947.888672
531.193359	2954.912109
529.958984	2945.522217
528.723633	2951.733154
527.488281	2954.220947
526.251953	2962.121338
525.016602	2959.356445
523.780273	2950.253662
522.542969	2955.509521
521.306641	2965.423096
520.069336	2967.852051
518.831055	2959.010498
517.593750	2962.515625
516.355469	2968.932861
515.117188	2958.122070
513.877930	2972.148682
512.638672	2964.882812
511.399414	2964.221436
510.160156	2969.417480
508.919922	2967.921387
507.679688	2976.505127
506.439453	2980.423828
505.198242	2979.030029
503.958008	2987.686035
502.715820	2986.904541
501.474609	2983.581299
500.232422	2987.996826
498.990234	2985.892334
497.748047	2998.001953
496.504883	2996.513184
495.261719	2997.127686
494.017578	3004.212158
492.774414	3001.451172
491.530273	3004.917969
490.286133	3017.916016
489.041016	3017.225830
487.795898	3016.245361
486.550781	3026.786621
485.305664	3027.562500
484.059570	3042.772461
482.813477	3040.865723
481.566406	3049.826904
480.320312	3057.524658
479.073242	3045.925781
477.825195	3054.235596
476.578125	3056.386475
475.330078	3052.731201
474.082031	3058.273193
472.833008	3074.371826
471.583984	3081.067383
470.334961	3082.954590
469.085938	3079.991699
467.835938	3076.280029
466.585938	3086.201416
465.335938	3084.833008
464.084961	3077.586914
462.833984	3088.515625
461.583008	3088.247803
460.331055	3089.292725
459.079102	3091.392090
457.827148	3082.280273
456.575195	3085.024414
455.322266	3082.453125
454.069336	3091.400146
452.815430	3085.652100
451.561523	3077.375244
450.307617	3085.766602
449.053711	3087.126709
447.798828	3088.454346
446.543945	3088.966553
445.289062	3078.034180
444.033203	3088.666992
442.778320	3099.047363
441.521484	3089.432129
440.265625	3096.328125
439.008789	3108.490723
437.751953	3091.535156
436.494141	3100.014404
435.237305	3105.687744
433.978516	3115.088135
432.720703	3126.170898
431.461914	3119.557861
430.203125	3125.475342
428.944336	3120.842773
427.684570	3128.513916
426.424805	3124.473633
425.165039	3124.320312
423.905273	3132.929443
422.644531	3143.693115
421.382812	3140.278809
420.122070	3148.232422
418.860352	3156.128174
417.598633	3157.137695
416.336914	3150.760986
415.074219	3153.054443
413.811523	3153.839600
412.547852	3151.423340
411.285156	3162.960693
410.021484	3177.284912
408.756836	3171.330566
407.493164	3172.055176
406.228516	3161.331299
404.963867	3161.155762
403.698242	3163.238037
402.432617	3165.372803
401.166992	3175.931885
399.900391	3170.561035
398.634766	3177.016113
397.367188	3172.707764
396.100586	3183.164551
394.833008	3184.135498
393.565430	3182.985596
392.297852	3177.485352
391.029297	3185.832764
389.760742	3196.712891
388.492188	3200.792725
387.222656	3187.106689
385.953125	3198.000000
384.683594	3189.514160
383.413086	3195.408691
382.142578	3191.927002
380.872070	3197.577637
379.600586	3197.618896
378.329102	3204.983398
377.057617	3197.874023
375.786133	3202.100342
374.513672	3214.743164
373.241211	3207.431396
371.967773	3219.693604
370.695312	3217.683105
369.421875	3207.599609
368.147461	3223.020996
366.873047	3211.478271
365.598633	3217.693115
364.324219	3221.499756
363.048828	3215.048340
361.773438	3227.826904
360.498047	3230.834961
359.221680	3231.558105
357.946289	3228.975830
356.668945	3230.715576
355.392578	3228.779785
354.115234	3227.671143
352.837891	3231.720703
351.559570	3220.015625
350.281250	3220.296387
349.002930	3227.015381
347.724609	3234.839355
346.445312	3242.208740
345.166016	3239.000488
343.885742	3229.316650
342.605469	3234.634521
341.325195	3241.078369
340.044922	3249.189697
338.763672	3253.519531
337.482422	3249.341797
336.201172	3258.030273
334.918945	3258.059326
333.636719	3257.431885
332.354492	3249.333740
331.071289	3255.103271
329.788086	3266.589844
328.504883	3263.711914
327.220703	3260.861328
325.936523	3279.851807
324.652344	3272.980225
323.368164	3281.871582
322.083008	3274.022461
320.796875	3274.035400
319.511719	3272.045410
318.225586	3280.856934
316.939453	3276.455811
315.652344	3276.883789
314.366211	3276.284668
313.078125	3274.970703
311.791016	3270.350342
310.502930	3273.676270
309.214844	3281.519043
307.926758	3285.054443
306.637695	3282.327637
305.348633	3282.689697
304.058594	3277.109375
302.769531	3274.359131
301.479492	3281.195068
300.188477	3296.887939
298.897461	3286.570557
297.606445	3283.272949
296.315430	3288.852783
295.023438	3281.105713
293.731445	3280.192871
292.439453	3288.092529
291.146484	3291.672607
289.854492	3286.752197
288.560547	3279.240723
287.267578	3285.324951
285.973633	3278.859619
284.678711	3285.830322
283.384766	3287.933838
282.089844	3279.030029
280.794922	3294.347412
279.499023	3297.828125
278.203125	3305.006348
276.907227	3313.661865
275.610352	3315.718750
274.314453	3317.604736
273.016602	3306.291016
271.719727	3307.307373
270.421875	3320.122803
269.124023	3316.267090
267.825195	3303.663086
266.526367	3300.034424
265.227539	3305.787598
263.928711	3305.662354
262.628906	3304.963135
261.329102	3311.035645
260.028320	3314.499512
258.728516	3315.747070
257.427734	3321.199707
256.125977	3309.457275
254.824219	3313.550049
253.522461	3318.898682
252.220703	3318.056641
250.917969	3318.909668
249.615234	3309.308594
248.312500	3317.901367
247.008789	3311.202637
245.705078	3314.658203
244.400391	3321.783203
243.096680	3317.883789
241.791992	3319.672607
240.486328	3312.686035
239.181641	3318.890869
237.875000	3313.252197
236.569336	3306.418701
235.262695	3309.706299
233.956055	3317.071045
232.649414	3310.024658
231.341797	3301.785156
230.034180	3318.152832
228.726562	3307.933350
227.417969	3310.968018
226.109375	3323.851562
224.800781	3314.055908
223.491211	3321.497803
222.181641	3322.852051
220.872070	3314.243896
219.561523	3307.936768
218.250977	3308.969482
216.940430	3317.267822
215.628906	3305.331299
214.317383	3308.218506
213.005859	3310.880371
211.693359	3302.085693
210.380859	3310.494629
209.068359	3310.744629
207.754883	3307.162842
206.441406	3306.020020
205.127930	3306.828857
203.814453	3305.797852
202.500000	3303.349609
201.184570	3310.221436
199.870117	3313.701904
198.554688	3305.775635
197.238281	3303.272705
195.922852	3300.504883
194.606445	3305.484619
193.289062	3302.031006
191.972656	3300.598145
190.655273	3303.477295
189.337891	3294.138184
188.019531	3307.140137
186.701172	3311.573730
185.382812	3296.809570
184.063477	3289.175537
182.744141	3290.921875
181.424805	3290.506348
180.104492	3276.967041
178.784180	3287.617920
177.463867	3284.222656
176.142578	3283.842529
174.821289	3289.555908
173.500000	3282.218506
172.177734	3277.502686
170.855469	3280.018555
169.533203	3280.970459
168.209961	3274.759521
166.886719	3275.741699
165.563477	3295.689453
164.239258	3287.951904
162.915039	3269.750244
161.590820	3287.987305
160.265625	3276.924072
158.940430	3280.492920
157.615234	3288.813721
156.289062	3283.634277
154.962891	3279.815674
153.636719	3281.697998
152.309570	3278.970459
150.982422	3275.273926
149.655273	3287.095215
148.327148	3279.350098
146.999023	3291.202148
145.670898	3287.632812
144.341797	3293.430176
143.012695	3295.570801
141.683594	3290.324707
140.353516	3283.794434
139.023438	3287.242676
137.693359	3276.747803
136.362305	3270.865723
135.031250	3267.213135
133.700195	3262.043945
132.368164	3261.773682
131.036133	3259.291016
129.703125	3253.181885
128.371094	3247.558594
127.037109	3245.376709
125.704102	3247.692871
124.370117	3240.935547
123.036133	3231.819580
121.702148	3226.380615
120.367188	3223.004395
119.032227	3216.516846
117.696289	3208.801758
116.361328	3202.747559
115.024414	3206.728516
113.688477	3201.505127
112.351562	3198.455322
111.014648	3199.245361
109.676758	3210.830078
108.339844	3209.298828
107.000977	3202.852295
105.663086	3208.098633
104.324219	3202.604004
102.985352	3203.398926
101.645508	3200.761719
100.305664	3196.220459
98.965820	3201.060547
97.625977	3186.188232
96.285156	3173.175781
94.944336	3168.691406
93.602539	3166.894531
92.260742	3164.829102
90.918945	3151.812988
89.576172	3157.293213
88.233398	3144.979004
86.890625	3145.976318
85.546875	3148.872803
84.203125	3140.233154
82.859375	3148.985107
81.514648	3152.230713
80.169922	3125.226074
78.825195	3133.638672
77.479492	3128.160156
76.133789	3128.784424
74.788086	3126.421631
73.441406	3122.319336
72.094727	3117.217041
70.748047	3125.504639
69.400391	3109.520752
68.052734	3088.718506
66.705078	3091.305908
65.356445	3073.457520
64.007812	3065.062256
62.658203	3052.883057
61.308594	3031.362305
59.958984	3007.396484
58.609375	2942.222900
57.258789	2816.442871
55.908203	2638.963135
54.556641	2387.410400
53.205078	2091.891846
51.853516	1767.039062
50.501953	1462.450562
49.149414	1167.152222
47.796875	902.882812
46.443359	663.310059
45.089844	458.219299
43.736328	289.862061
42.381836	167.121582
41.027344	90.839348
39.672852	48.498676
38.317383	27.916161
36.961914	19.311514
35.606445	15.304609
34.250000	13.747825
32.893555	12.728768
31.537109	11.668605
30.179688	11.632421
28.822266	11.201116
27.464844	11.065265
26.106445	10.900379
24.748047	10.698170
23.388672	10.575008
22.029297	10.505912
20.669922	10.287335
19.310547	10.313843
17.950195	10.539587
16.589844	10.478866
