#Wave	#Intensity
1286.597656	2085.387207
1285.532227	2084.009277
1284.466797	2092.895508
1283.401367	2087.907715
1282.334961	2082.699463
1281.269531	2089.467041
1280.203125	2086.749023
1279.135742	2089.987061
1278.069336	2094.377441
1277.001953	2090.024902
1275.934570	2099.978027
1274.867188	2108.657715
1273.799805	2104.748535
1272.731445	2111.123535
1271.663086	2108.203613
1270.594727	2114.315918
1269.526367	2109.732178
1268.457031	2120.484131
1267.387695	2115.922119
1266.318359	2122.364746
1265.249023	2119.567139
1264.178711	2119.878906
1263.108398	2129.962158
1262.038086	2126.647461
1260.967773	2133.428223
1259.896484	2132.513184
1258.826172	2137.159912
1257.754883	2137.761963
1256.682617	2137.383545
1255.611328	2139.955322
1254.539062	2150.374023
1253.466797	2147.080566
1252.394531	2151.343750
1251.322266	2151.046387
1250.249023	2154.222412
1249.175781	2146.247803
1248.102539	2154.667725
1247.029297	2158.945068
1245.955078	2155.007080
1244.880859	2167.209717
1243.806641	2163.602539
1242.732422	2167.148438
1241.657227	2156.098633
1240.583008	2159.665283
1239.507812	2159.617676
1238.431641	2153.369385
1237.356445	2165.925537
1236.280273	2159.898926
1235.204102	2169.567627
1234.127930	2165.719482
1233.050781	2163.498535
1231.974609	2169.992676
1230.897461	2168.447754
1229.819336	2170.708496
1228.742188	2164.086426
1227.664062	2160.814697
1226.586914	2165.976807
1225.507812	2161.276123
1224.429688	2165.289062
1223.350586	2159.172119
1222.272461	2162.717773
1221.192383	2167.737061
1220.113281	2168.480469
1219.034180	2171.310303
1217.954102	2171.022461
1216.874023	2166.688477
1215.792969	2170.127930
1214.712891	2173.246826
1213.631836	2177.811279
1212.550781	2187.941406
1211.469727	2180.422607
1210.387695	2178.252930
1209.306641	2186.094727
1208.224609	2178.205322
1207.141602	2175.708252
1206.059570	2181.234619
1204.976562	2182.628174
1203.893555	2187.926025
1202.810547	2189.614502
1201.727539	2195.085449
1200.643555	2208.802002
1199.559570	2203.681152
1198.475586	2195.906006
1197.391602	2200.677979
1196.306641	2199.351562
1195.221680	2203.969238
1194.136719	2214.600342
1193.051758	2223.551514
1191.965820	2224.347900
1190.879883	2226.147705
1189.793945	2223.854736
1188.708008	2224.587891
1187.621094	2237.361572
1186.534180	2234.880371
1185.447266	2241.059326
1184.360352	2234.849121
1183.273438	2237.712402
1182.185547	2244.690918
1181.097656	2251.889404
1180.009766	2256.874023
1178.920898	2253.965820
1177.832031	2257.339844
1176.743164	2258.404785
1175.654297	2255.958984
1174.565430	2260.941895
1173.475586	2266.798340
1172.385742	2270.247803
1171.295898	2281.921631
1170.205078	2284.382080
1169.115234	2278.174072
1168.024414	2271.761719
1166.933594	2279.289062
1165.841797	2277.892822
1164.750977	2270.061279
1163.659180	2280.433594
1162.566406	2276.519287
1161.474609	2274.818848
1160.381836	2279.698975
1159.290039	2284.520020
1158.196289	2287.463135
1157.103516	2290.296631
1156.010742	2287.902344
1154.916992	2281.740234
1153.823242	2287.339111
1152.728516	2284.079834
1151.634766	2284.128906
1150.540039	2282.336426
1149.445312	2286.320801
1148.349609	2276.530762
1147.254883	2278.627441
1146.159180	2286.830566
1145.063477	2286.666992
1143.967773	2283.705811
1142.871094	2292.921875
1141.774414	2287.040527
1140.677734	2289.234131
1139.581055	2288.791504
1138.484375	2284.226562
1137.386719	2281.762695
1136.289062	2293.512451
1135.191406	2293.320312
1134.092773	2292.927734
1132.994141	2286.073486
1131.895508	2296.141113
1130.796875	2293.265869
1129.698242	2305.464111
1128.598633	2302.397949
1127.499023	2290.346436
1126.399414	2301.089111
1125.298828	2295.643799
1124.199219	2297.076660
1123.098633	2307.574463
1121.998047	2306.018799
1120.896484	2305.089111
1119.794922	2310.666016
1118.693359	2317.542236
1117.591797	2312.950928
1116.490234	2321.550049
1115.387695	2320.263672
1114.285156	2323.249023
1113.182617	2326.330322
1112.080078	2329.829834
1110.976562	2325.844727
1109.873047	2335.032471
1108.769531	2331.196289
1107.665039	2334.440186
1106.561523	2343.578613
1105.457031	2346.818359
1104.352539	2347.572021
1103.247070	2345.075195
1102.142578	2356.609131
1101.037109	2345.692871
1099.931641	2356.184570
1098.825195	2356.306641
1097.719727	2356.387451
1096.613281	2351.344238
1095.506836	2357.793945
1094.399414	2360.552246
1093.292969	2369.393555
1092.185547	2367.369873
1091.078125	2363.537109
1089.969727	2363.742432
1088.862305	2363.341309
1087.753906	2372.691162
1086.645508	2374.416992
1085.536133	2376.966553
1084.427734	2387.213135
1083.318359	2370.242920
1082.208984	2381.651367
1081.098633	2379.281738
1079.989258	2381.836914
1078.878906	2388.876221
1077.768555	2382.844971
1076.657227	2388.975830
1075.546875	2382.428467
1074.435547	2393.078857
1073.324219	2384.587402
1072.211914	2388.024902
1071.100586	2391.338867
1069.988281	2391.153564
1068.875977	2387.780273
1067.762695	2384.738525
1066.650391	2387.146484
1065.537109	2393.296631
1064.423828	2390.685791
1063.309570	2385.520752
1062.196289	2380.428955
1061.082031	2376.626221
1059.967773	2394.257080
1058.852539	2386.785156
1057.738281	2385.398926
1056.623047	2385.693848
1055.507812	2387.072021
1054.391602	2391.318848
1053.276367	2386.840332
1052.160156	2397.241699
1051.042969	2390.709961
1049.926758	2400.185303
1048.809570	2399.595703
1047.693359	2406.567627
1046.575195	2409.574219
1045.458008	2395.240234
1044.339844	2406.521729
1043.221680	2403.960938
1042.103516	2417.436279
1040.985352	2421.178223
1039.866211	2420.694580
1038.747070	2422.289551
1037.627930	2431.142578
1036.508789	2432.310547
1035.388672	2428.218994
1034.268555	2432.244873
1033.148438	2434.368896
1032.027344	2436.632812
1030.907227	2443.787109
1029.786133	2443.075928
1028.665039	2446.675293
1027.542969	2457.421875
1026.420898	2445.045410
1025.298828	2452.732422
1024.176758	2461.935303
1023.054688	2460.460449
1021.931641	2471.794189
1020.808594	2467.401367
1019.685547	2467.996582
1018.561523	2465.204102
1017.438477	2477.671631
1016.314453	2480.820312
1015.189453	2473.938232
1014.065430	2475.815674
1012.940430	2478.605713
1011.815430	2486.814453
1010.690430	2475.430420
1009.564453	2473.326904
1008.439453	2494.124756
1007.313477	2488.191650
1006.186523	2485.665039
1005.060547	2498.501465
1003.933594	2485.855713
1002.806641	2492.914551
1001.678711	2493.604004
1000.551758	2496.816650
999.423828	2492.953369
998.295898	2491.223877
997.167969	2489.079590
996.039062	2489.747803
994.910156	2497.803955
993.781250	2504.750977
992.652344	2499.204834
991.522461	2511.891602
990.392578	2501.857910
989.262695	2507.003174
988.132812	2499.367432
987.001953	2500.415283
985.871094	2503.359619
984.740234	2494.416260
983.609375	2514.230225
982.477539	2507.697998
981.345703	2509.360352
980.213867	2507.894287
979.081055	2519.159424
977.949219	2522.158447
976.816406	2526.003418
975.682617	2517.831543
974.549805	2517.535156
973.416016	2515.564697
972.282227	2523.769287
971.148438	2513.503174
970.013672	2524.237793
968.879883	2530.060303
967.744141	2529.386963
966.609375	2530.802979
965.474609	2537.176514
964.338867	2535.670898
963.203125	2540.215820
962.066406	2546.244385
960.930664	2554.252441
959.793945	2550.314453
958.657227	2567.143555
957.519531	2552.259766
956.382812	2565.356934
955.245117	2572.278809
954.107422	2569.143799
952.968750	2581.091797
951.831055	2587.657715
950.692383	2591.537598
949.552734	2585.817139
948.414062	2595.573975
947.274414	2594.473389
946.134766	2591.455566
944.995117	2592.089600
943.855469	2603.939941
942.714844	2607.580811
941.574219	2607.917969
940.432617	2615.366455
939.291992	2620.807617
938.150391	2627.853516
937.008789	2625.811279
935.867188	2616.629639
934.724609	2622.479980
933.582031	2629.360107
932.439453	2624.630371
931.296875	2624.027344
930.153320	2622.866211
929.009766	2634.864746
927.866211	2642.464111
926.722656	2642.157715
925.578125	2639.892334
924.433594	2631.554688
923.289062	2635.348877
922.143555	2646.617188
920.998047	2647.862061
919.852539	2649.731934
918.707031	2649.989502
917.561523	2648.458252
916.415039	2657.473389
915.268555	2659.545654
914.121094	2656.205566
912.974609	2657.346191
911.827148	2655.341309
910.679688	2658.434570
909.531250	2655.888916
908.383789	2648.386719
907.235352	2657.142822
906.086914	2648.591309
904.937500	2654.143555
903.789062	2655.098877
902.639648	2649.618164
901.489258	2652.872070
900.339844	2650.590576
899.189453	2661.642822
898.039062	2661.916748
896.888672	2670.365234
895.737305	2661.477783
894.585938	2659.068115
893.434570	2671.727783
892.283203	2662.026367
891.130859	2666.043213
889.978516	2679.564209
888.826172	2678.019043
887.673828	2673.770752
886.520508	2679.665527
885.367188	2696.337891
884.213867	2694.583740
883.059570	2695.379883
881.906250	2694.335693
880.751953	2707.183350
879.596680	2716.376709
878.442383	2708.287109
877.287109	2710.172852
876.131836	2718.239502
874.975586	2726.722412
873.820312	2732.666016
872.664062	2732.125977
871.507812	2730.907471
870.350586	2732.300537
869.194336	2744.834717
868.037109	2752.683838
866.878906	2754.519287
865.721680	2757.070312
864.563477	2755.075928
863.405273	2766.087891
862.247070	2763.697021
861.087891	2763.572510
859.928711	2762.424805
858.769531	2769.045898
857.610352	2763.003418
856.450195	2767.259521
855.290039	2770.642334
854.129883	2774.972168
852.968750	2774.819336
851.808594	2778.391846
850.647461	2784.748779
849.485352	2779.327881
848.324219	2787.688477
847.162109	2793.066406
846.000000	2789.337158
844.837891	2792.215088
843.674805	2780.950684
842.511719	2784.154053
841.348633	2793.884033
840.184570	2788.328125
839.021484	2788.033691
837.857422	2784.096191
836.692383	2785.572266
835.528320	2795.556152
834.363281	2795.332031
833.198242	2801.213623
832.033203	2796.380127
830.867188	2796.920166
829.701172	2805.155273
828.535156	2800.681641
827.369141	2805.338867
826.202148	2817.001709
825.035156	2828.827881
823.868164	2820.796387
822.700195	2821.212402
821.532227	2831.723389
820.364258	2830.550537
819.196289	2835.090332
818.027344	2844.420898
816.858398	2846.940674
815.689453	2845.310303
814.520508	2849.653076
813.350586	2851.179443
812.180664	2857.478027
811.010742	2854.673096
809.839844	2869.848389
808.669922	2866.501221
807.499023	2870.595459
806.327148	2879.339600
805.156250	2883.486328
803.984375	2890.656738
802.811523	2894.186768
801.639648	2909.943359
800.466797	2918.031250
799.293945	2918.566895
798.121094	2921.869385
796.947266	2923.076904
795.774414	2926.963135
794.600586	2930.275146
793.425781	2940.370117
792.251953	2946.864258
791.077148	2947.241455
789.901367	2952.120605
788.726562	2958.054199
787.550781	2957.457275
786.375000	2959.160645
785.199219	2953.147949
784.022461	2956.607666
782.845703	2951.998779
781.668945	2961.069824
780.492188	2961.205078
779.314453	2950.560303
778.136719	2954.173340
776.958984	2956.725098
775.780273	2965.203369
774.602539	2953.818604
773.423828	2962.738525
772.244141	2965.327881
771.065430	2966.810059
769.885742	2960.895752
768.705078	2960.104492
767.525391	2967.025635
766.344727	2965.405273
765.164062	2967.706543
763.983398	2977.895508
762.801758	2975.866455
761.620117	2975.592041
760.438477	2985.737549
759.256836	2987.103516
758.074219	2992.303223
756.891602	3003.592529
755.708984	3002.966797
754.525391	2997.502197
753.342773	3006.562988
752.159180	3010.477295
750.974609	3014.666016
749.791016	3020.125488
748.606445	3021.058594
747.420898	3029.415771
746.236328	3033.723633
745.050781	3030.126709
743.865234	3035.908203
742.679688	3042.405762
741.493164	3042.426270
740.306641	3039.252930
739.120117	3039.092529
737.933594	3045.349121
736.746094	3047.217529
735.558594	3041.339600
734.371094	3062.359619
733.182617	3053.752197
731.994141	3072.682861
730.805664	3077.866455
729.616211	3077.486084
728.427734	3073.350098
727.238281	3082.715820
726.048828	3085.774414
724.858398	3095.246338
723.667969	3097.365723
722.477539	3097.539062
721.287109	3099.357422
720.095703	3113.025635
718.904297	3112.246582
717.712891	3126.757812
716.520508	3128.310547
715.328125	3128.782715
714.135742	3129.557373
712.943359	3138.539551
711.750000	3137.337402
710.556641	3136.722168
709.363281	3136.835449
708.168945	3145.499023
706.975586	3141.741699
705.781250	3146.164062
704.585938	3143.976807
703.390625	3148.046143
702.196289	3156.893799
701.000000	3168.816406
699.804688	3158.777344
698.608398	3158.367920
697.412109	3170.648926
696.215820	3180.140137
695.018555	3179.130615
693.821289	3187.855469
692.624023	3176.437988
691.425781	3185.686768
690.227539	3196.434082
689.029297	3197.785889
687.831055	3202.711914
686.631836	3207.555420
685.432617	3213.253174
684.233398	3207.513672
683.034180	3203.885010
681.833984	3229.114502
680.633789	3235.332275
679.432617	3239.844238
678.232422	3246.159424
677.031250	3244.587891
675.829102	3257.839844
674.627930	3267.086670
673.425781	3267.009033
672.223633	3279.972900
671.021484	3279.375244
669.818359	3294.122803
668.615234	3306.000244
667.412109	3314.226074
666.208008	3318.423096
665.003906	3332.541504
663.799805	3348.115723
662.595703	3356.613525
661.390625	3371.602295
660.185547	3381.936035
658.980469	3391.688232
657.774414	3407.078857
656.568359	3410.896973
655.362305	3436.456543
654.156250	3444.421143
652.949219	3463.044922
651.742188	3491.426758
650.535156	3504.558105
649.327148	3522.849609
648.119141	3546.881836
646.911133	3565.682129
645.703125	3580.273193
644.494141	3618.838623
643.285156	3630.429688
642.075195	3658.613525
640.866211	3692.137695
639.656250	3702.708496
638.446289	3704.618896
637.235352	3723.875977
636.024414	3731.749268
634.813477	3720.749756
633.602539	3708.724854
632.390625	3700.051270
631.178711	3680.916992
629.966797	3668.275391
628.754883	3629.495605
627.541992	3607.638672
626.329102	3604.908691
625.115234	3581.196533
623.901367	3551.507568
622.687500	3537.167725
621.473633	3530.470215
620.259766	3525.504883
619.044922	3502.967041
617.829102	3483.041992
616.614258	3489.087402
615.398438	3484.316406
614.182617	3479.519287
612.966797	3466.246826
611.750000	3478.114258
610.533203	3476.365234
609.316406	3471.030518
608.098633	3481.389160
606.881836	3472.762695
605.664062	3479.494629
604.445312	3475.924072
603.226562	3477.308350
602.007812	3478.089600
600.789062	3482.519775
599.569336	3481.840088
598.350586	3479.368652
597.129883	3486.261230
595.910156	3483.497803
594.689453	3480.614990
593.468750	3486.964844
592.248047	3496.011963
591.026367	3486.941650
589.804688	3486.781494
588.583008	3487.697754
587.360352	3486.696289
586.137695	3500.658936
584.915039	3500.000244
583.692383	3509.677734
582.468750	3512.690430
581.245117	3513.352539
580.021484	3519.706787
578.796875	3518.272461
577.572266	3527.448242
576.347656	3529.667725
575.122070	3520.386963
573.897461	3526.693115
572.670898	3530.900146
571.445312	3534.782471
570.218750	3521.115479
568.992188	3532.238525
567.765625	3541.947510
566.538086	3537.181152
565.310547	3544.450439
564.083008	3543.847168
562.855469	3556.761230
561.626953	3557.938232
560.398438	3564.656494
559.168945	3573.673096
557.940430	3577.388916
556.710938	3582.884277
555.480469	3594.032959
554.250977	3600.072021
553.020508	3598.875488
551.790039	3609.625977
550.558594	3612.050537
549.327148	3627.914551
548.095703	3634.780029
546.864258	3642.467041
545.631836	3645.512451
544.399414	3647.002930
543.166992	3652.825195
541.933594	3672.647705
540.700195	3680.818359
539.466797	3684.288574
538.233398	3690.918701
536.999023	3704.755371
535.764648	3717.418701
534.529297	3729.952148
533.293945	3746.895264
532.058594	3760.388672
530.823242	3757.406982
529.587891	3769.666260
528.351562	3783.156738
527.114258	3797.239014
525.877930	3808.579346
524.640625	3845.097900
523.403320	3853.035156
522.165039	3875.451904
520.927734	3891.536377
519.689453	3898.525391
518.450195	3922.117432
517.211914	3924.150391
515.972656	3929.134521
514.732422	3947.708496
513.493164	3948.421143
512.252930	3943.487305
511.012695	3934.472412
509.771484	3924.815186
508.530273	3916.850098
507.289062	3900.045898
506.047852	3884.027100
504.805664	3862.977783
503.563477	3843.811279
502.321289	3839.990234
501.078125	3820.605957
499.834961	3810.664307
498.591797	3807.602295
497.348633	3788.774170
496.104492	3804.191406
494.860352	3807.489258
493.615234	3801.653076
492.370117	3797.279785
491.125000	3812.705811
489.879883	3798.339355
488.633789	3809.374268
487.387695	3816.334473
486.141602	3826.615967
484.895508	3841.679443
483.648438	3829.979492
482.400391	3848.198486
481.153320	3840.461914
479.905273	3856.632568
478.657227	3855.980957
477.409180	3861.674561
476.160156	3869.132568
474.911133	3882.621582
473.661133	3885.478760
472.412109	3892.486328
471.162109	3898.808350
469.911133	3895.643066
468.661133	3886.131104
467.410156	3886.382324
466.159180	3894.827881
464.907227	3894.092529
463.655273	3896.658936
462.403320	3907.119629
461.151367	3907.580078
459.898438	3896.217041
458.645508	3886.030762
457.392578	3882.020996
456.138672	3884.895020
454.884766	3879.734131
453.630859	3884.137207
452.375977	3873.613281
451.121094	3877.011475
449.866211	3865.157471
448.610352	3868.402344
447.354492	3869.487305
446.098633	3870.440674
444.842773	3870.319336
443.585938	3886.283203
442.329102	3890.545898
441.072266	3909.451660
439.814453	3903.873047
438.556641	3912.400879
437.297852	3900.612549
436.040039	3924.166504
434.781250	3925.249512
433.522461	3935.515869
432.262695	3942.562256
431.002930	3960.989746
429.743164	3957.078125
428.482422	3959.901611
427.221680	3979.636475
425.960938	3983.025635
424.700195	3990.048096
423.438477	3984.861084
422.176758	3991.386475
420.915039	4008.242676
419.652344	4009.467773
418.389648	4024.271484
417.125977	4032.380127
415.863281	4042.920166
414.599609	4052.891602
413.335938	4059.659668
412.071289	4067.522461
410.806641	4079.872803
409.541992	4099.608887
408.276367	4109.187012
407.010742	4123.127930
405.745117	4139.175781
404.479492	4147.884277
403.212891	4170.498535
401.946289	4199.814453
400.678711	4221.183105
399.412109	4252.124512
398.144531	4267.799316
396.875977	4273.255371
395.608398	4284.215332
394.339844	4300.919922
393.070312	4305.174805
391.801758	4311.490723
390.532227	4291.944824
389.261719	4289.545410
387.992188	4275.379395
386.721680	4264.810547
385.451172	4238.854980
384.179688	4231.431641
382.908203	4223.767090
381.636719	4214.214355
380.365234	4199.348145
379.092773	4193.333496
377.820312	4180.838867
376.546875	4177.545410
375.273438	4166.758789
374.000000	4157.998535
372.726562	4149.202148
371.452148	4165.013672
370.177734	4152.506348
368.903320	4145.661133
367.627930	4140.793945
366.352539	4140.980469
365.077148	4135.429688
363.800781	4138.784668
362.524414	4147.667480
361.248047	4154.387207
359.971680	4148.041504
358.694336	4146.923828
357.416992	4133.068848
356.138672	4134.362793
354.860352	4133.884277
353.582031	4158.371094
352.302734	4149.470215
351.024414	4146.956543
349.745117	4167.286133
348.464844	4163.661621
347.184570	4151.886230
345.904297	4161.654785
344.624023	4171.338379
343.342773	4170.473633
342.061523	4171.693359
340.780273	4179.278320
339.498047	4176.939941
338.215820	4194.827637
336.933594	4202.853516
335.650391	4195.629395
334.367188	4199.901367
333.083984	4206.370605
331.799805	4207.118652
330.515625	4207.611328
329.231445	4210.415527
327.946289	4211.802734
326.661133	4199.708496
325.375977	4198.140625
324.090820	4210.362793
322.804688	4204.599609
321.518555	4206.221680
320.231445	4199.004395
318.944336	4205.469727
317.657227	4200.466309
316.370117	4213.548828
315.082031	4218.395996
313.793945	4217.292480
312.504883	4224.208496
311.215820	4233.231934
309.926758	4233.429688
308.637695	4232.795410
307.347656	4236.192383
306.057617	4229.972168
304.767578	4239.335938
303.476562	4225.554199
302.185547	4231.957031
300.893555	4226.232422
299.602539	4226.904785
298.310547	4235.583008
297.017578	4226.745117
295.725586	4236.671875
294.432617	4228.479492
293.138672	4238.950684
291.845703	4237.862305
290.551758	4232.332031
289.257812	4244.699707
287.962891	4244.106934
286.667969	4253.691406
285.373047	4240.157227
284.077148	4254.483398
282.781250	4250.388672
281.485352	4267.135742
280.188477	4279.405273
278.891602	4278.389160
277.594727	4287.201660
276.297852	4297.306641
275.000000	4307.645996
273.702148	4305.356445
272.403320	4317.361816
271.104492	4322.304688
269.805664	4316.269531
268.506836	4313.717773
267.207031	4315.876465
265.907227	4306.297852
264.606445	4305.312988
263.305664	4302.309082
262.004883	4296.884766
260.704102	4292.980957
259.402344	4300.310547
258.100586	4300.648926
256.797852	4296.147949
255.495117	4302.065430
254.192383	4311.256348
252.889648	4303.748047
251.585938	4302.147461
250.282227	4325.434570
248.977539	4320.321777
247.673828	4322.859375
246.369141	4321.613281
245.063477	4333.934570
243.757812	4325.410645
242.452148	4346.463379
241.146484	4351.669922
239.839844	4338.020508
238.533203	4327.221191
237.226562	4334.397461
235.918945	4327.295898
234.611328	4329.472168
233.303711	4331.128906
231.995117	4333.147461
230.686523	4334.305664
229.376953	4340.837891
228.068359	4339.051758
226.758789	4335.562988
225.448242	4338.265625
224.138672	4343.229004
222.828125	4330.965332
221.516602	4335.521973
220.206055	4352.099121
218.894531	4348.244629
217.582031	4330.369141
216.269531	4345.613281
214.957031	4348.000000
213.644531	4342.789551
212.331055	4360.955078
211.017578	4365.299805
209.704102	4359.937500
208.389648	4373.138672
207.075195	4368.292480
205.760742	4365.723633
204.445312	4393.042480
203.129883	4387.111816
201.814453	4405.395020
200.498047	4414.770996
199.181641	4437.798828
197.865234	4449.056641
196.547852	4460.544434
195.230469	4458.859863
193.913086	4455.963379
192.594727	4433.220703
191.276367	4432.313965
189.958008	4425.580078
188.638672	4416.794434
187.319336	4422.413086
186.000000	4431.533203
184.679688	4423.897949
183.359375	4426.281738
182.039062	4431.062012
180.717773	4449.158691
179.396484	4445.999023
178.075195	4450.398438
176.752930	4454.808105
175.430664	4478.259766
174.108398	4492.623535
172.785156	4505.362305
171.461914	4512.496094
170.138672	4544.722656
168.814453	4564.470703
167.490234	4583.641602
166.166016	4635.007324
164.840820	4680.683594
163.515625	4723.725586
162.190430	4759.479004
160.864258	4826.522461
159.538086	4901.851562
158.210938	4992.006348
156.884766	5104.222656
155.557617	5245.039551
154.229492	5415.559082
152.902344	5619.331055
151.574219	5875.005859
150.245117	6214.764160
148.916016	6606.221680
147.586914	7097.201660
146.257812	7624.881836
144.927734	8197.429688
143.597656	8605.814453
142.267578	8743.562500
140.936523	8545.614258
139.605469	8057.794922
138.273438	7442.286133
136.942383	6859.497070
135.610352	6314.786621
134.277344	5944.721191
132.944336	5662.557617
131.611328	5448.184570
130.278320	5296.178711
128.944336	5163.750488
127.610352	5038.967285
126.275391	4933.877930
124.941406	4836.382812
123.605469	4774.480957
122.270508	4740.315430
120.934570	4695.734863
119.598633	4653.960449
118.261719	4627.812988
116.925781	4599.401855
115.587891	4578.715332
114.250977	4540.332520
112.913086	4506.957520
111.575195	4499.562012
110.236328	4480.788574
108.897461	4482.972168
107.558594	4462.933594
106.219727	4474.887207
104.879883	4454.628418
103.539062	4461.639648
102.199219	4440.660156
100.858398	4452.000000
99.517578	4428.519043
98.175781	4417.223145
96.833984	4420.946777
95.492188	4410.309570
94.149414	4397.376465
92.806641	4388.839355
91.463867	4385.124512
90.120117	4379.653809
88.776367	4377.871094
87.432617	4357.596191
86.087891	4348.750977
84.743164	4357.095215
83.398438	4365.976562
82.052734	4372.028809
80.707031	4344.092773
79.361328	4362.126953
78.014648	4355.367676
76.667969	4355.017578
75.321289	4339.569336
73.973633	4341.473145
72.625977	4341.214355
