#Wave	#Intensity
1286.597656	92.273399
1285.532227	92.024284
1284.466797	92.539597
1283.401367	91.682487
1282.334961	91.747406
1281.269531	92.437187
1280.203125	92.628975
1279.135742	92.804802
1278.069336	93.155182
1277.001953	92.399559
1275.934570	92.903282
1274.867188	93.560158
1273.799805	92.952980
1272.731445	93.445663
1271.663086	93.113602
1270.594727	93.838547
1269.526367	93.686165
1268.457031	94.384247
1267.387695	94.068092
1266.318359	94.512352
1265.249023	94.581635
1264.178711	93.648170
1263.108398	94.234673
1262.038086	94.741798
1260.967773	93.888000
1259.896484	94.141869
1258.826172	95.650291
1257.754883	95.703377
1256.682617	94.713081
1255.611328	95.351120
1254.539062	94.645744
1253.466797	95.251915
1252.394531	95.215492
1251.322266	95.168564
1250.249023	94.979553
1249.175781	95.527229
1248.102539	95.727478
1247.029297	95.922371
1245.955078	95.444153
1244.880859	96.154190
1243.806641	96.285782
1242.732422	96.459351
1241.657227	95.582138
1240.583008	95.918594
1239.507812	95.756035
1238.431641	96.176300
1237.356445	97.152763
1236.280273	97.766701
1235.204102	97.310051
1234.127930	97.530258
1233.050781	97.655968
1231.974609	98.678215
1230.897461	98.541504
1229.819336	98.724548
1228.742188	97.623741
1227.664062	97.723076
1226.586914	98.047577
1225.507812	97.759262
1224.429688	97.476303
1223.350586	97.821564
1222.272461	97.046799
1221.192383	96.157265
1220.113281	96.120720
1219.034180	95.780869
1217.954102	96.282951
1216.874023	96.957314
1215.792969	95.525200
1214.712891	96.669678
1213.631836	97.014389
1212.550781	96.183807
1211.469727	95.828751
1210.387695	95.860161
1209.306641	97.306030
1208.224609	96.189072
1207.141602	96.100372
1206.059570	95.886528
1204.976562	95.109558
1203.893555	96.371506
1202.810547	96.757172
1201.727539	96.444328
1200.643555	97.163261
1199.559570	96.079483
1198.475586	96.459648
1197.391602	96.751122
1196.306641	96.464615
1195.221680	97.281624
1194.136719	97.577919
1193.051758	97.619156
1191.965820	97.993248
1190.879883	98.242378
1189.793945	97.446373
1188.708008	97.716286
1187.621094	98.282295
1186.534180	98.614243
1185.447266	98.561646
1184.360352	98.155914
1183.273438	98.160538
1182.185547	99.011322
1181.097656	99.368668
1180.009766	100.462685
1178.920898	99.200958
1177.832031	98.686653
1176.743164	99.443024
1175.654297	99.483612
1174.565430	99.596741
1173.475586	100.248756
1172.385742	101.781258
1171.295898	101.676239
1170.205078	102.632904
1169.115234	103.542549
1168.024414	103.426834
1166.933594	107.658501
1165.841797	111.417458
1164.750977	115.459290
1163.659180	112.786087
1162.566406	114.783348
1161.474609	116.536751
1160.381836	118.325569
1159.290039	117.199120
1158.196289	116.476135
1157.103516	114.183220
1156.010742	111.023712
1154.916992	107.855255
1153.823242	106.912941
1152.728516	103.731262
1151.634766	103.569344
1150.540039	102.633720
1149.445312	102.430840
1148.349609	101.681480
1147.254883	102.118118
1146.159180	101.467064
1145.063477	100.713226
1143.967773	101.443428
1142.871094	100.550842
1141.774414	99.591698
1140.677734	100.270157
1139.581055	100.582855
1138.484375	100.180092
1137.386719	99.257851
1136.289062	100.187813
1135.191406	99.826523
1134.092773	98.987213
1132.994141	98.605766
1131.895508	99.355148
1130.796875	99.806183
1129.698242	100.087479
1128.598633	99.454430
1127.499023	99.011642
1126.399414	98.851402
1125.298828	98.650162
1124.199219	98.572166
1123.098633	99.510017
1121.998047	98.872749
1120.896484	99.610115
1119.794922	100.321518
1118.693359	99.781860
1117.591797	99.524300
1116.490234	99.861198
1115.387695	99.752281
1114.285156	99.730461
1113.182617	100.118279
1112.080078	101.171410
1110.976562	99.915810
1109.873047	100.687080
1108.769531	99.841393
1107.665039	100.382164
1106.561523	100.457352
1105.457031	100.609184
1104.352539	100.858063
1103.247070	100.830864
1102.142578	100.956947
1101.037109	99.954094
1099.931641	101.837082
1098.825195	101.523743
1097.719727	100.347839
1096.613281	101.719116
1095.506836	101.217201
1094.399414	102.118355
1093.292969	102.004166
1092.185547	102.563095
1091.078125	103.295113
1089.969727	102.885094
1088.862305	103.514786
1087.753906	104.567047
1086.645508	104.279243
1085.536133	105.524368
1084.427734	107.756645
1083.318359	107.768623
1082.208984	110.116463
1081.098633	110.132988
1079.989258	109.305099
1078.878906	108.370758
1077.768555	106.140259
1076.657227	106.101700
1075.546875	104.436798
1074.435547	104.566292
1073.324219	104.238510
1072.211914	104.667633
1071.100586	105.396149
1069.988281	105.956810
1068.875977	106.375099
1067.762695	106.808418
1066.650391	108.027908
1065.537109	108.881660
1064.423828	106.859665
1063.309570	107.206276
1062.196289	105.433907
1061.082031	105.436043
1059.967773	104.247498
1058.852539	104.133369
1057.738281	103.016518
1056.623047	102.284966
1055.507812	102.515556
1054.391602	102.543587
1053.276367	102.207283
1052.160156	102.356766
1051.042969	101.464279
1049.926758	102.139740
1048.809570	102.567177
1047.693359	102.231194
1046.575195	102.557335
1045.458008	102.448830
1044.339844	103.098038
1043.221680	102.348106
1042.103516	102.724388
1040.985352	102.590675
1039.866211	103.072701
1038.747070	102.918777
1037.627930	102.739685
1036.508789	102.278236
1035.388672	102.371628
1034.268555	102.530502
1033.148438	103.536011
1032.027344	103.563530
1030.907227	102.492805
1029.786133	102.792503
1028.665039	102.029572
1027.542969	104.488983
1026.420898	109.801170
1025.298828	104.498146
1024.176758	104.203362
1023.054688	102.776962
1021.931641	103.126366
1020.808594	103.264442
1019.685547	104.156441
1018.561523	104.671127
1017.438477	104.527374
1016.314453	104.293259
1015.189453	103.642403
1014.065430	104.287254
1012.940430	104.183846
1011.815430	103.141945
1010.690430	104.734810
1009.564453	104.465790
1008.439453	104.061462
1007.313477	104.108604
1006.186523	104.336197
1005.060547	104.744110
1003.933594	104.370110
1002.806641	104.983231
1001.678711	104.879807
1000.551758	104.380806
999.423828	104.978470
998.295898	104.995224
997.167969	104.086143
996.039062	104.738480
994.910156	104.129982
993.781250	104.501938
992.652344	104.868729
991.522461	105.110374
990.392578	104.922104
989.262695	104.708916
988.132812	104.325974
987.001953	104.018112
985.871094	104.214691
984.740234	104.126625
983.609375	103.714172
982.477539	105.352760
981.345703	104.995071
980.213867	104.527809
979.081055	105.292435
977.949219	104.526161
976.816406	104.677353
975.682617	105.182274
974.549805	105.970955
973.416016	104.786766
972.282227	105.943680
971.148438	104.511063
970.013672	106.045815
968.879883	104.922348
967.744141	105.884117
966.609375	105.711281
965.474609	104.827332
964.338867	105.097313
963.203125	105.009254
962.066406	106.128922
960.930664	106.795921
959.793945	106.046799
958.657227	106.241661
957.519531	106.188156
956.382812	106.804863
955.245117	106.900131
954.107422	107.020164
952.968750	107.383224
951.831055	108.028839
950.692383	107.404671
949.552734	106.830353
948.414062	108.536354
947.274414	108.408028
946.134766	107.868523
944.995117	108.339737
943.855469	107.300293
942.714844	107.568405
941.574219	107.351288
940.432617	109.202904
939.291992	109.025078
938.150391	108.778069
937.008789	108.516327
935.867188	108.447525
934.724609	107.953613
933.582031	108.512619
932.439453	108.033714
931.296875	109.274162
930.153320	108.637238
929.009766	108.998039
927.866211	109.422836
926.722656	108.736923
925.578125	109.186249
924.433594	108.633881
923.289062	109.092873
922.143555	110.029976
920.998047	109.517197
919.852539	109.182083
918.707031	110.359970
917.561523	108.867004
916.415039	109.300644
915.268555	109.891655
914.121094	110.201759
912.974609	108.843033
911.827148	109.010498
910.679688	108.789185
909.531250	108.951645
908.383789	108.317322
907.235352	110.549774
906.086914	109.060020
904.937500	108.460472
903.789062	110.917374
902.639648	109.801857
901.489258	109.870453
900.339844	109.978279
899.189453	109.757149
898.039062	109.064941
896.888672	110.271988
895.737305	110.124496
894.585938	110.001579
893.434570	110.751541
892.283203	110.702057
891.130859	109.951698
889.978516	110.544327
888.826172	110.421402
887.673828	111.625893
886.520508	110.072861
885.367188	110.948845
884.213867	111.183212
883.059570	111.852997
881.906250	110.956871
880.751953	110.325279
879.596680	110.779602
878.442383	110.862129
877.287109	110.969048
876.131836	112.087517
874.975586	111.143631
873.820312	111.377388
872.664062	112.084740
871.507812	111.971497
870.350586	112.258575
869.194336	112.277092
868.037109	111.695442
866.878906	112.348221
865.721680	112.776344
864.563477	113.238388
863.405273	113.134743
862.247070	112.397545
861.087891	113.414818
859.928711	113.851906
858.769531	112.598755
857.610352	113.357178
856.450195	113.375282
855.290039	113.422577
854.129883	113.353050
852.968750	114.679764
851.808594	112.761726
850.647461	114.637436
849.485352	113.191833
848.324219	114.186821
847.162109	114.452454
846.000000	114.465317
844.837891	113.948738
843.674805	114.325897
842.511719	113.634781
841.348633	112.278992
840.184570	114.820564
839.021484	113.576691
837.857422	113.749725
836.692383	113.156464
835.528320	114.265221
834.363281	114.530045
833.198242	114.193825
832.033203	115.403297
830.867188	114.054634
829.701172	113.994751
828.535156	114.472321
827.369141	114.591454
826.202148	115.281586
825.035156	115.710114
823.868164	114.750137
822.700195	115.304306
821.532227	115.824371
820.364258	116.281349
819.196289	116.336975
818.027344	116.808098
816.858398	117.134079
815.689453	117.556480
814.520508	118.413246
813.350586	119.081345
812.180664	121.834068
811.010742	124.426292
809.839844	126.414314
808.669922	129.279190
807.499023	129.982559
806.327148	130.593994
805.156250	129.450790
803.984375	128.626114
802.811523	126.876862
801.639648	126.544403
800.466797	125.812416
799.293945	125.928040
798.121094	126.674103
796.947266	127.054108
795.774414	127.987167
794.600586	127.202721
793.425781	126.442665
792.251953	125.553139
791.077148	124.486168
789.901367	120.925720
788.726562	120.383942
787.550781	119.813583
786.375000	119.142624
785.199219	118.875237
784.022461	119.174347
782.845703	117.860939
781.668945	118.356819
780.492188	118.809288
779.314453	117.621513
778.136719	117.546547
776.958984	118.099518
775.780273	117.880692
774.602539	116.617523
773.423828	116.834991
772.244141	117.967018
771.065430	117.231308
769.885742	118.171227
768.705078	117.713348
767.525391	117.284370
766.344727	116.783829
765.164062	116.761726
763.983398	117.910988
762.801758	115.871460
761.620117	117.283211
760.438477	117.633629
759.256836	116.560432
758.074219	116.352097
756.891602	118.507210
755.708984	117.162430
754.525391	117.345390
753.342773	117.213356
752.159180	117.162468
750.974609	117.764931
749.791016	117.361092
748.606445	117.953674
747.420898	117.669098
746.236328	118.213669
745.050781	118.210182
743.865234	118.244781
742.679688	117.712769
741.493164	119.327820
740.306641	117.253838
739.120117	118.758789
737.933594	119.097603
736.746094	118.456566
735.558594	118.809532
734.371094	119.433281
733.182617	117.780296
731.994141	119.767609
730.805664	119.906143
729.616211	119.830879
728.427734	119.223862
727.238281	119.106049
726.048828	119.927963
724.858398	120.161133
723.667969	119.758530
722.477539	120.371010
721.287109	120.319389
720.095703	119.689461
718.904297	120.680634
717.712891	121.841911
716.520508	120.885170
715.328125	121.595924
714.135742	120.980568
712.943359	121.993904
711.750000	121.762070
710.556641	122.008217
709.363281	122.504951
708.168945	122.301498
706.975586	121.984642
705.781250	121.705750
704.585938	122.707733
703.390625	122.806770
702.196289	124.828362
701.000000	126.324776
699.804688	127.603287
698.608398	129.022797
697.412109	131.149567
696.215820	133.199829
695.018555	132.187622
693.821289	130.963638
692.624023	129.773209
691.425781	127.480263
690.227539	126.847305
689.029297	125.479584
687.831055	124.150177
686.631836	123.918716
685.432617	123.531967
684.233398	123.620834
683.034180	122.678963
681.833984	124.753555
680.633789	123.355545
679.432617	123.528976
678.232422	122.484512
677.031250	122.098648
675.829102	122.981865
674.627930	122.859161
673.425781	122.309021
672.223633	123.219719
671.021484	122.909195
669.818359	122.734932
668.615234	122.814171
667.412109	122.710365
666.208008	123.202347
665.003906	122.934334
663.799805	123.121246
662.595703	122.933037
661.390625	123.185448
660.185547	122.941071
658.980469	124.326942
657.774414	124.461723
656.568359	123.346306
655.362305	123.851036
654.156250	124.247879
652.949219	124.190674
651.742188	124.788368
650.535156	124.408348
649.327148	125.061790
648.119141	124.462166
646.911133	122.965515
645.703125	124.581291
644.494141	125.191994
643.285156	124.681580
642.075195	124.535568
640.866211	125.257843
639.656250	125.256416
638.446289	125.124336
637.235352	126.195763
636.024414	125.951576
634.813477	125.087395
633.602539	125.869041
632.390625	126.380020
631.178711	125.152893
629.966797	126.576744
628.754883	125.415321
627.541992	125.218193
626.329102	126.524612
625.115234	125.489632
623.901367	126.399887
622.687500	126.253822
621.473633	125.187050
620.259766	126.538376
619.044922	126.378395
617.829102	125.735191
616.614258	125.756653
615.398438	127.166893
614.182617	126.630730
612.966797	127.431892
611.750000	127.174377
610.533203	127.599129
609.316406	127.063316
608.098633	128.095490
606.881836	127.374290
605.664062	128.544952
604.445312	127.096275
603.226562	128.595428
602.007812	127.809891
600.789062	128.724548
599.569336	128.082886
598.350586	128.557205
597.129883	128.350922
595.910156	129.037796
594.689453	127.998749
593.468750	129.189499
592.248047	129.427124
591.026367	128.897202
589.804688	129.268784
588.583008	128.808441
587.360352	129.068970
586.137695	129.546432
584.915039	128.993973
583.692383	129.078812
582.468750	129.112823
581.245117	128.800751
580.021484	129.420654
578.796875	129.454529
577.572266	130.286072
576.347656	128.955185
575.122070	128.869278
573.897461	129.525238
572.670898	129.402359
571.445312	129.758499
570.218750	129.202789
568.992188	128.725586
567.765625	130.996078
566.538086	129.354584
565.310547	129.742447
564.083008	130.056519
562.855469	129.942856
561.626953	130.426788
560.398438	130.804779
559.168945	131.210144
557.940430	131.229462
556.710938	130.844620
555.480469	132.319412
554.250977	132.489883
553.020508	132.522598
551.790039	132.266220
550.558594	132.918167
549.327148	133.945831
548.095703	133.670929
546.864258	133.648239
545.631836	133.987579
544.399414	133.850266
543.166992	133.538956
541.933594	134.496231
540.700195	134.601501
539.466797	134.784515
538.233398	135.635513
536.999023	136.243637
535.764648	135.890945
534.529297	136.914810
533.293945	136.685547
532.058594	137.397888
530.823242	137.100052
529.587891	137.747986
528.351562	137.610031
527.114258	139.157028
525.877930	138.516617
524.640625	139.724899
523.403320	139.422287
522.165039	141.154358
520.927734	141.052185
519.689453	141.396896
518.450195	142.242859
517.211914	142.527832
515.972656	142.138336
514.732422	142.910583
513.493164	143.340897
512.252930	144.262711
511.012695	143.927734
509.771484	144.534927
508.530273	146.115479
507.289062	146.207825
506.047852	145.731674
504.805664	146.992493
503.563477	146.848175
502.321289	148.180801
501.078125	148.158890
499.834961	149.072662
498.591797	150.494583
497.348633	150.785355
496.104492	152.955048
494.860352	153.630768
493.615234	156.043701
492.370117	157.035828
491.125000	160.603043
489.879883	162.269043
488.633789	165.520523
487.387695	168.793091
486.141602	172.956512
484.895508	176.492905
483.648438	180.009476
482.400391	186.100128
481.153320	191.916290
479.905273	198.901520
478.657227	206.629791
477.409180	217.814041
476.160156	230.448807
474.911133	250.129211
473.661133	274.360046
472.412109	308.139679
471.162109	351.673492
469.911133	418.371429
468.661133	511.449493
467.410156	640.674500
466.159180	797.035522
464.907227	917.403809
463.655273	940.957947
462.403320	840.832703
461.151367	683.729004
459.898438	527.949524
458.645508	414.400726
457.392578	335.681732
456.138672	284.205139
454.884766	250.467972
453.630859	227.718109
452.375977	212.401001
451.121094	204.934235
449.866211	198.744156
448.610352	191.455154
447.354492	179.965485
446.098633	169.295013
444.842773	162.130707
443.585938	155.360748
442.329102	153.414062
441.072266	149.932388
439.814453	146.272781
438.556641	145.797516
437.297852	143.801117
436.040039	142.595322
434.781250	142.417297
433.522461	140.171997
432.262695	141.456207
431.002930	140.937881
429.743164	139.967209
428.482422	141.013046
427.221680	139.935287
425.960938	139.247620
424.700195	140.010788
423.438477	139.484543
422.176758	140.028000
420.915039	140.119354
419.652344	138.528946
418.389648	139.488052
417.125977	140.536087
415.863281	139.929947
414.599609	140.736053
413.335938	139.125015
412.071289	139.180603
410.806641	138.544083
409.541992	139.715729
408.276367	141.002823
407.010742	141.878815
405.745117	143.815994
404.479492	147.772400
403.212891	156.167542
401.946289	161.643448
400.678711	162.379593
399.412109	158.455185
398.144531	154.225342
396.875977	151.520477
395.608398	152.249405
394.339844	158.804230
393.070312	162.988525
391.801758	159.550064
390.532227	151.389832
389.261719	144.976624
387.992188	142.665268
386.721680	140.768356
385.451172	138.890137
384.179688	139.811432
382.908203	139.715256
381.636719	139.237244
380.365234	139.047989
379.092773	139.897308
377.820312	139.024689
376.546875	139.802582
375.273438	139.147690
374.000000	138.222641
372.726562	138.960251
371.452148	140.761032
370.177734	139.929260
368.903320	141.144241
367.627930	139.427124
366.352539	140.358261
365.077148	139.987671
363.800781	141.099609
362.524414	141.919022
361.248047	144.431976
359.971680	145.077698
358.694336	150.554901
357.416992	160.988190
356.138672	181.260849
354.860352	195.763245
353.582031	192.279556
352.302734	174.796661
351.024414	157.578323
349.745117	149.004868
348.464844	145.412384
347.184570	143.202255
345.904297	141.487122
344.624023	139.614090
343.342773	140.126541
342.061523	139.545883
340.780273	139.934723
339.498047	139.433655
338.215820	139.007675
336.933594	138.951691
335.650391	138.121078
334.367188	139.684586
333.083984	138.761810
331.799805	139.044540
330.515625	139.467819
329.231445	138.967743
327.946289	138.960114
326.661133	139.242477
325.375977	139.551025
324.090820	139.885773
322.804688	138.490479
321.518555	139.492493
320.231445	139.339859
318.944336	138.783646
317.657227	138.591766
316.370117	138.570984
315.082031	139.339340
313.793945	138.919495
312.504883	139.542755
311.215820	139.845901
309.926758	139.312332
308.637695	139.225647
307.347656	140.045166
306.057617	140.592926
304.767578	140.042160
303.476562	139.482895
302.185547	139.488052
300.893555	139.821121
299.602539	139.804321
298.310547	139.708847
297.017578	139.595932
295.725586	140.361038
294.432617	139.130066
293.138672	140.781143
291.845703	141.658829
290.551758	140.009491
289.257812	140.664429
287.962891	140.660431
286.667969	141.432587
285.373047	140.900894
284.077148	141.123428
282.781250	141.202072
281.485352	142.831451
280.188477	142.704926
278.891602	142.282349
277.594727	142.391037
276.297852	143.578949
275.000000	144.392090
273.702148	145.778992
272.403320	146.943405
271.104492	148.898514
269.805664	150.557083
268.506836	155.043747
267.207031	162.743103
265.907227	173.483353
264.606445	187.792038
263.305664	193.107285
262.004883	184.813461
260.704102	173.199921
259.402344	164.381454
258.100586	158.746323
256.797852	156.430908
255.495117	155.191650
254.192383	155.014786
252.889648	153.941116
251.585938	153.851242
250.282227	153.964935
248.977539	154.966110
247.673828	155.265579
246.369141	155.660080
245.063477	156.876389
243.757812	156.876678
242.452148	158.079086
241.146484	158.541626
239.839844	159.829437
238.533203	161.600555
237.226562	163.720703
235.918945	164.008591
234.611328	167.029495
233.303711	169.621536
231.995117	172.980469
230.686523	175.914902
229.376953	178.990234
228.068359	182.598770
226.758789	187.386841
225.448242	192.724258
224.138672	198.403778
222.828125	202.844025
221.516602	209.879272
220.206055	219.468857
218.894531	229.079529
217.582031	237.751480
216.269531	251.823578
214.957031	263.927094
213.644531	278.174988
212.331055	292.738312
211.017578	305.059143
209.704102	315.126190
208.389648	324.672668
207.075195	329.944702
205.760742	333.891418
204.445312	333.315277
203.129883	328.627350
201.814453	317.667908
200.498047	304.474365
199.181641	293.500519
197.865234	278.402649
196.547852	263.295074
195.230469	250.359344
193.913086	239.092529
192.594727	226.019180
191.276367	216.267151
189.958008	206.044662
188.638672	199.251724
187.319336	191.332306
186.000000	185.581726
184.679688	180.505554
183.359375	175.316406
182.039062	170.895096
180.717773	168.553268
179.396484	165.669891
178.075195	162.070206
176.752930	161.077667
175.430664	158.979675
174.108398	156.387482
172.785156	154.415421
171.461914	153.370255
170.138672	152.317047
168.814453	150.756851
167.490234	150.024567
166.166016	150.358322
164.840820	149.323914
163.515625	149.444611
162.190430	147.810318
160.864258	146.934830
159.538086	146.621750
158.210938	147.074966
156.884766	146.676880
155.557617	147.317017
154.229492	147.837738
152.902344	148.438980
151.574219	148.368240
150.245117	150.418304
148.916016	150.551041
147.586914	150.862122
146.257812	152.969467
144.927734	152.689590
143.597656	153.500763
142.267578	153.874405
140.936523	154.493942
139.605469	156.788605
138.273438	157.932922
136.942383	160.462982
135.610352	162.088989
134.277344	172.744202
132.944336	189.617416
131.611328	223.978531
130.278320	282.644501
128.944336	363.569489
127.610352	414.295654
126.275391	395.449005
124.941406	325.025360
123.605469	255.994095
122.270508	209.375931
120.934570	180.876526
119.598633	164.684448
118.261719	157.228989
116.925781	150.241821
115.587891	146.467438
114.250977	142.437393
112.913086	139.831696
111.575195	138.290649
110.236328	136.509872
108.897461	136.758636
107.558594	138.900467
106.219727	138.415009
104.879883	136.311432
103.539062	134.423767
102.199219	133.210999
100.858398	132.314682
99.517578	133.902832
98.175781	131.685074
96.833984	132.675034
95.492188	133.092316
94.149414	132.651337
92.806641	133.064194
91.463867	134.338669
90.120117	132.300568
88.776367	130.360107
87.432617	128.924713
86.087891	129.090149
84.743164	131.363281
83.398438	134.298538
82.052734	134.030243
80.707031	130.502029
79.361328	130.503235
78.014648	128.265060
76.667969	130.799103
75.321289	133.315125
73.973633	131.794464
72.625977	132.758881
