#Wave		#Intensity
1241.677734	718.641418
1240.603516	716.949585
1239.528320	719.593933
1238.453125	718.177368
1237.377930	715.144104
1236.302734	714.611023
1235.226562	717.122253
1234.150391	715.450195
1233.074219	722.026001
1231.998047	716.403870
1230.920898	714.680481
1229.843750	718.095825
1228.766602	719.371033
1227.689453	720.215881
1226.612305	718.314880
1225.534180	719.285278
1224.456055	716.798645
1223.377930	718.721802
1222.298828	718.937561
1221.220703	715.212097
1220.141602	714.659180
1219.061523	713.693176
1217.982422	718.339783
1216.902344	717.462280
1215.822266	717.343140
1214.742188	716.455627
1213.662109	722.059021
1212.581055	713.845764
1211.500000	718.674072
1210.418945	718.230835
1209.337891	720.325317
1208.255859	716.003235
1207.174805	720.346558
1206.092773	717.789917
1205.009766	719.214783
1203.927734	716.763733
1202.844727	720.487671
1201.761719	720.962036
1200.678711	723.338623
1199.594727	726.698975
1198.510742	725.092773
1197.426758	726.018738
1196.342773	726.183899
1195.258789	725.541992
1194.173828	725.972595
1193.088867	721.687866
1192.003906	727.166077
1190.917969	729.130554
1189.833008	731.999084
1188.747070	727.784180
1187.661133	731.608215
1186.574219	731.075012
1185.488281	732.869995
1184.401367	734.570618
1183.314453	730.556885
1182.226562	735.082214
1181.139648	734.382446
1180.051758	734.414856
1178.963867	735.417725
1177.875000	733.535217
1176.787109	735.341736
1175.698242	737.598694
1174.609375	739.444946
1173.519531	739.906189
1172.430664	740.450134
1171.340820	739.719116
1170.250977	740.387146
1169.161133	741.205017
1168.070312	745.036316
1166.979492	746.712158
1165.888672	744.784607
1164.797852	743.618652
1163.707031	748.020203
1162.615234	742.953674
1161.523438	740.123413
1160.431641	743.100830
1159.338867	744.164246
1158.247070	745.165100
1157.154297	743.230591
1156.060547	743.445923
1154.967773	749.518066
1153.874023	746.576782
1152.780273	744.684753
1151.686523	745.792297
1150.592773	741.888672
1149.498047	745.756409
1148.403320	748.791992
1147.308594	748.025574
1146.213867	750.074463
1145.118164	747.313049
1144.022461	746.768860
1142.926758	744.864624
1141.831055	748.153748
1140.734375	748.382141
1139.637695	748.981079
1138.541016	746.619629
1137.444336	745.396667
1136.346680	747.559998
1135.249023	747.561707
1134.151367	750.392212
1133.053711	747.014587
1131.955078	748.538025
1130.856445	748.873352
1129.757812	752.415283
1128.659180	750.766296
1127.559570	752.241150
1126.460938	752.035950
1125.361328	755.579041
1124.260742	755.783752
1123.161133	756.450256
1122.060547	752.990967
1120.959961	754.175842
1119.859375	753.200867
1118.757812	751.062195
1117.656250	758.736938
1116.554688	756.392944
1115.453125	758.149414
1114.350586	760.038330
1113.249023	760.425537
1112.146484	762.323242
1111.042969	763.032288
1109.940430	762.461182
1108.836914	763.671265
1107.733398	766.385071
1106.629883	761.946106
1105.526367	763.390625
1104.421875	765.049255
1103.317383	765.541443
1102.212891	763.733459
1101.107422	768.359619
1100.001953	771.021851
1098.896484	770.577454
1097.791016	768.264160
1096.685547	772.017090
1095.579102	773.093689
1094.472656	769.893250
1093.366211	771.530945
1092.258789	773.193420
1091.152344	770.642517
1090.044922	774.236755
1088.936523	774.617859
1087.829102	774.346375
1086.720703	772.892761
1085.612305	774.068420
1084.503906	776.842773
1083.395508	775.913940
1082.286133	777.576721
1081.176758	774.841125
1080.067383	773.261841
1078.957031	775.916016
1077.847656	773.731750
1076.737305	776.023499
1075.626953	776.005981
1074.515625	775.159790
1073.405273	774.862793
1072.293945	773.991760
1071.181641	775.163086
1070.070312	774.820435
1068.958008	772.670227
1067.845703	771.607300
1066.733398	770.235168
1065.621094	775.003418
1064.507812	774.508667
1063.394531	775.718323
1062.281250	774.128235
1061.166992	773.116699
1060.053711	778.862122
1058.939453	777.165771
1057.825195	778.079346
1056.709961	774.388062
1055.595703	778.178223
1054.480469	772.918823
1053.364258	776.039368
1052.249023	777.382019
1051.132812	778.172607
1050.016602	778.269653
1048.900391	778.280701
1047.784180	776.592651
1046.666992	780.218506
1045.549805	779.986267
1044.432617	779.521667
1043.314453	779.951416
1042.197266	779.299988
1041.079102	786.087158
1039.959961	782.950623
1038.841797	788.754639
1037.722656	788.025940
1036.603516	787.009949
1035.484375	789.701782
1034.365234	788.559692
1033.245117	789.964172
1032.125000	792.058594
1031.004883	790.840942
1029.883789	792.032227
1028.763672	792.915588
1027.642578	794.659790
1026.520508	795.290344
1025.399414	799.806946
1024.277344	799.434326
1023.155273	803.027100
1022.033203	799.071838
1020.910156	799.680237
1019.788086	801.957886
1018.665039	802.590454
1017.541016	802.353088
1016.417969	804.231445
1015.293945	804.033875
1014.169922	803.077820
1013.045898	807.470581
1011.920898	808.567688
1010.795898	802.365356
1009.670898	805.028809
1008.545898	805.769226
1007.419922	807.768372
1006.294922	806.080322
1005.168945	808.991028
1004.041992	807.323364
1002.916016	812.638123
1001.789062	810.108337
1000.662109	810.826050
999.534180	809.499756
998.407227	805.775391
997.279297	808.280640
996.151367	808.066833
995.022461	808.898926
993.894531	807.744324
992.765625	809.781494
991.636719	810.337402
990.506836	807.023132
989.377930	808.219116
988.248047	808.589905
987.118164	810.524414
985.987305	805.159607
984.857422	810.629822
983.726562	808.188293
982.595703	808.548401
981.463867	807.984863
980.332031	810.205933
979.201172	807.392212
978.068359	807.477600
976.936523	808.669800
975.803711	804.731445
974.670898	812.522949
973.538086	809.522156
972.404297	808.485596
971.271484	811.942322
970.137695	812.967285
969.002930	813.200073
967.869141	812.432129
966.734375	810.455139
965.599609	813.618713
964.464844	815.721252
963.329102	812.993713
962.193359	815.209656
961.057617	817.464355
959.921875	816.547058
958.785156	817.766785
957.649414	819.432983
956.511719	819.196167
955.375000	818.457825
954.237305	821.726074
953.100586	823.156372
951.961914	822.665527
950.824219	823.906311
949.685547	823.469971
948.546875	826.886841
947.408203	828.061218
946.269531	833.284607
945.129883	829.312927
943.990234	833.522827
942.850586	833.540222
941.709961	834.463806
940.570312	833.079651
939.429688	833.166199
938.288086	832.233154
937.147461	834.952026
936.005859	836.744568
934.864258	833.906982
933.722656	834.620911
932.580078	835.067444
931.437500	836.601074
930.294922	836.043701
929.152344	836.568481
928.008789	837.660950
926.865234	837.103516
925.721680	836.255005
924.578125	837.104736
923.433594	832.269226
922.289062	837.825928
921.144531	837.692932
920.000000	835.661377
918.854492	834.897705
917.708984	836.209473
916.563477	834.223755
915.416992	838.032898
914.271484	837.205017
913.124023	839.947937
911.977539	840.439453
910.831055	841.944702
909.683594	834.915344
908.536133	840.647583
907.387695	840.788940
906.240234	838.967773
905.091797	840.781067
903.943359	844.284546
902.793945	838.939697
901.645508	841.896423
900.496094	844.856689
899.346680	840.345154
898.196289	839.994629
897.046875	839.197449
895.896484	842.405701
894.745117	846.642944
893.594727	843.715393
892.443359	845.939209
891.291992	844.606750
890.140625	847.741150
888.988281	850.839783
887.835938	848.364990
886.683594	851.319824
885.531250	852.216003
884.377930	850.251709
883.224609	851.274841
882.071289	853.712097
880.917969	856.622864
879.763672	859.561646
878.609375	860.821167
877.455078	860.554138
876.300781	856.214172
875.145508	858.724792
873.990234	862.460938
872.833984	863.493225
871.678711	863.425781
870.522461	864.139771
869.366211	863.979309
868.209961	868.129456
867.052734	866.342773
865.895508	867.489380
864.738281	869.255066
863.581055	864.449890
862.422852	867.956116
861.264648	871.621521
860.106445	864.961853
858.947266	873.445557
857.789062	870.700439
856.629883	875.024048
855.469727	874.690186
854.310547	869.872375
853.150391	872.031799
851.990234	873.343445
850.829102	872.348267
849.668945	872.243591
848.507812	873.743713
847.346680	874.382446
846.184570	871.627930
845.023438	876.455933
843.861328	873.677734
842.698242	873.888184
841.536133	874.214966
840.373047	871.079651
839.209961	871.503845
838.046875	870.855225
836.882812	875.102600
835.718750	874.642517
834.554688	875.458069
833.390625	875.594299
832.225586	879.230469
831.060547	880.795410
829.895508	877.359009
828.729492	874.481140
827.564453	876.171753
826.398438	879.512756
825.231445	880.208862
824.065430	881.412781
822.898438	876.615784
821.731445	880.959595
820.563477	884.783813
819.396484	885.511414
818.228516	887.891968
817.060547	889.647888
815.891602	887.899414
814.722656	893.007263
813.553711	889.597107
812.384766	890.993347
811.215820	889.323059
810.045898	891.481201
808.875977	897.392761
807.705078	902.423401
806.535156	899.309448
805.364258	897.204773
804.193359	900.038086
803.021484	900.739380
801.849609	905.136658
800.677734	903.427307
799.505859	905.504822
798.333008	906.435059
797.161133	906.883362
795.988281	907.114746
794.814453	905.911743
793.641602	907.447021
792.467773	910.477478
791.292969	913.217957
790.119141	909.629456
788.944336	908.523010
787.769531	910.968628
786.594727	912.298279
785.418945	911.941101
784.243164	910.988464
783.067383	912.974792
781.891602	914.038391
780.714844	913.599182
779.538086	912.814636
778.361328	915.230103
777.184570	914.277466
776.006836	918.470337
774.829102	915.853699
773.650391	917.738708
772.472656	916.311707
771.293945	917.975159
770.115234	914.455505
768.935547	915.395386
767.756836	917.124756
766.577148	919.461060
765.396484	915.518005
764.216797	918.838928
763.036133	920.020264
761.855469	915.271423
760.674805	919.187500
759.493164	918.116394
758.311523	919.836426
757.129883	921.178162
755.947266	920.904785
754.765625	922.130859
753.583008	921.484802
752.399414	924.218384
751.216797	930.582092
750.033203	932.014404
748.849609	930.708069
747.665039	925.887634
746.480469	928.235168
745.295898	930.333679
744.111328	930.582092
742.926758	935.766235
741.741211	937.189636
740.555664	935.502625
739.369141	938.501160
738.183594	938.032959
736.997070	941.533813
735.810547	937.044617
734.623047	943.526367
733.435547	945.363586
732.248047	949.795837
731.060547	949.714905
729.872070	951.306763
728.683594	949.714478
727.495117	952.079651
726.306641	955.008850
725.117188	953.862793
723.927734	955.812195
722.738281	959.981567
721.547852	960.025818
720.357422	960.093628
719.166992	965.012939
717.976562	963.898804
716.785156	965.183716
715.593750	966.851746
714.402344	974.815918
713.209961	971.592224
712.017578	971.798706
710.825195	977.871399
709.632812	975.510498
708.439453	983.060669
707.246094	981.551147
706.052734	982.028931
704.858398	983.040894
703.665039	983.891479
702.469727	982.217285
701.275391	987.302063
700.080078	990.981079
698.884766	988.654236
697.689453	992.623779
696.494141	992.379700
695.297852	989.048340
694.101562	991.164795
692.904297	990.567017
691.708008	992.865845
690.510742	992.654541
689.313477	991.443604
688.115234	994.541748
686.916992	994.574951
685.718750	992.209656
684.520508	1001.099426
683.321289	995.356750
682.122070	999.739990
680.922852	1003.598633
679.723633	1011.695801
678.523438	996.973267
677.323242	999.648743
676.122070	1003.757385
674.921875	1003.730957
673.720703	1002.002747
672.519531	1001.765015
671.317383	1004.689575
670.115234	1006.532166
668.913086	1008.087402
667.710938	1012.327515
666.507812	1008.941956
665.304688	1007.749695
664.101562	1007.247559
662.898438	1011.436646
661.694336	1013.578857
660.490234	1012.756592
659.285156	1011.911133
658.081055	1013.685913
656.875977	1011.523804
655.670898	1011.761047
654.464844	1012.363403
653.258789	1015.428284
652.052734	1014.278564
650.846680	1018.955994
649.639648	1016.364624
648.432617	1015.710999
647.225586	1015.992981
646.017578	1023.718567
644.810547	1022.960510
643.601562	1024.413330
642.393555	1021.767639
641.184570	1025.060425
639.975586	1025.586792
638.766602	1024.786621
637.556641	1026.040771
636.347656	1030.113159
635.136719	1026.699341
633.926758	1025.964600
632.715820	1025.598511
631.504883	1033.765259
630.293945	1032.311279
629.082031	1033.957031
627.871094	1034.520874
626.658203	1031.730469
625.446289	1035.410034
624.233398	1038.026245
623.020508	1039.286499
621.807617	1038.247070
620.593750	1039.887939
619.379883	1043.416626
618.166016	1045.948364
616.951172	1048.734497
615.737305	1048.228027
614.522461	1050.017578
613.306641	1053.292969
612.091797	1054.155762
610.875977	1058.529175
609.659180	1057.899780
608.443359	1058.830200
607.226562	1061.593384
606.009766	1058.727051
604.791992	1064.406372
603.575195	1064.341553
602.357422	1065.004639
601.138672	1072.759521
599.920898	1068.785767
598.702148	1069.687988
597.483398	1073.188232
596.263672	1073.417236
595.043945	1072.928345
593.824219	1080.651245
592.604492	1079.878418
591.383789	1082.238037
590.163086	1085.910156
588.942383	1086.944458
587.721680	1087.423340
586.500000	1088.077637
585.278320	1094.799072
584.055664	1093.265747
582.833008	1096.601440
581.610352	1100.461914
580.387695	1104.343628
579.164062	1111.892822
577.941406	1109.350708
576.716797	1113.683838
575.493164	1119.767700
574.268555	1125.705566
573.043945	1134.710938
571.819336	1140.877319
570.593750	1139.902588
569.368164	1146.428589
568.142578	1146.912964
566.916016	1150.182861
565.689453	1157.875366
564.462891	1166.770020
563.236328	1169.554077
562.008789	1174.728882
560.781250	1182.219238
559.552734	1189.062256
558.325195	1186.008545
557.096680	1196.427490
555.867188	1193.616821
554.638672	1194.537720
553.409180	1195.513062
552.179688	1192.915405
550.949219	1190.061890
549.719727	1189.091309
548.489258	1184.977905
547.257812	1184.205933
546.027344	1179.517578
544.795898	1177.178955
543.564453	1172.187012
542.332031	1174.644897
541.099609	1174.201050
539.867188	1166.065918
538.634766	1166.233276
537.401367	1166.510254
536.167969	1164.525757
534.933594	1164.660889
533.700195	1164.672363
532.465820	1164.130127
531.231445	1163.885376
529.996094	1158.803223
528.760742	1163.734131
527.525391	1163.397949
526.290039	1165.414795
525.053711	1165.201416
523.817383	1160.813965
522.581055	1158.884888
521.343750	1160.411865
520.106445	1164.174316
518.869141	1160.712402
517.630859	1161.320801
516.392578	1162.772461
515.154297	1157.425537
513.916016	1161.835449
512.676758	1161.686035
511.437500	1163.559448
510.197266	1163.158936
508.958008	1163.382446
507.717773	1167.220459
506.476562	1170.605957
505.236328	1170.622437
503.995117	1174.601196
502.753906	1178.587158
501.511719	1175.541016
500.270508	1180.692871
499.027344	1180.297241
497.785156	1183.464111
496.541992	1190.558960
495.298828	1192.826904
494.055664	1196.001831
492.811523	1196.673706
491.567383	1198.901978
490.323242	1209.577637
489.079102	1214.233032
487.833984	1213.615967
486.588867	1215.923584
485.342773	1219.784912
484.096680	1229.046509
482.850586	1227.687500
481.604492	1233.794189
480.357422	1236.863525
479.110352	1232.546753
477.863281	1234.175171
476.616211	1233.626099
475.368164	1233.823486
474.119141	1234.703857
472.871094	1240.422485
471.622070	1240.970459
470.373047	1242.575806
469.124023	1244.062744
467.874023	1243.723633
466.624023	1251.270996
465.373047	1250.248169
464.123047	1249.920898
462.872070	1251.814453
461.621094	1251.518433
460.369141	1248.028198
459.117188	1245.991943
457.865234	1245.972168
456.612305	1245.190430
455.360352	1247.347534
454.106445	1253.018188
452.853516	1253.356689
451.599609	1251.114136
450.345703	1258.607544
449.091797	1258.795532
447.836914	1263.425293
446.582031	1268.084229
445.327148	1269.619019
444.071289	1275.591675
442.815430	1282.577515
441.559570	1284.664673
440.303711	1291.024536
439.046875	1302.552734
437.790039	1301.106934
436.532227	1304.103271
435.274414	1311.273438
434.016602	1321.079346
432.758789	1327.712280
431.500000	1328.468872
430.241211	1337.904419
428.982422	1340.577271
427.722656	1349.780884
426.462891	1350.853760
425.203125	1359.597534
423.943359	1371.979370
422.682617	1383.835449
421.421875	1392.013794
420.160156	1404.660400
418.898438	1420.666504
417.636719	1430.359863
416.375000	1441.560669
415.112305	1452.979370
413.849609	1467.683472
412.585938	1483.421875
411.323242	1499.313354
410.059570	1520.978882
408.794922	1533.136719
407.531250	1549.482178
406.266602	1559.997314
405.001953	1577.381470
403.736328	1591.624268
402.470703	1607.675903
401.205078	1617.211548
399.939453	1624.463745
398.672852	1629.558716
397.406250	1629.471680
396.138672	1628.092285
394.871094	1625.902466
393.603516	1624.435181
392.335938	1618.163574
391.067383	1615.443115
389.798828	1608.228394
388.530273	1597.920044
387.260742	1583.661499
385.991211	1572.389771
384.721680	1553.515137
383.451172	1539.833008
382.180664	1527.304077
380.910156	1512.759399
379.639648	1494.783203
378.368164	1481.416748
377.096680	1466.475830
375.824219	1457.614746
374.551758	1446.907104
373.279297	1431.199829
372.006836	1421.954102
370.733398	1410.051758
369.459961	1398.044312
368.186523	1394.544312
366.912109	1382.448730
365.637695	1374.833496
364.362305	1373.095215
363.087891	1362.961670
361.812500	1362.076904
360.537109	1358.120728
359.260742	1354.268066
357.984375	1349.819946
356.708008	1351.853271
355.430664	1346.430420
354.153320	1337.111084
352.875977	1337.497070
351.598633	1330.685059
350.320312	1327.807739
349.041992	1328.716675
347.762695	1330.578613
346.483398	1328.890503
345.204102	1330.376099
343.924805	1323.482422
342.644531	1323.389160
341.364258	1321.933350
340.083984	1325.980225
338.802734	1326.728149
337.521484	1326.179810
336.239258	1328.548340
334.958008	1327.488770
333.675781	1328.485962
332.392578	1324.930420
331.110352	1329.514648
329.827148	1332.446411
328.543945	1330.519897
327.259766	1329.319946
325.975586	1337.292603
324.691406	1334.038452
323.406250	1341.834473
322.121094	1339.964478
320.835938	1340.607910
319.550781	1347.192993
318.264648	1353.440918
316.978516	1354.093506
315.691406	1359.305176
314.404297	1363.632324
313.117188	1368.567017
311.830078	1379.274414
310.541992	1390.914673
309.253906	1401.409546
307.964844	1416.973633
306.676758	1427.233276
305.387695	1438.968262
304.097656	1448.932617
302.807617	1457.766968
301.517578	1459.200195
300.227539	1463.721802
298.936523	1452.982788
297.645508	1435.071899
296.354492	1423.256104
295.062500	1409.120483
293.770508	1393.173462
292.478516	1383.661377
291.185547	1373.590210
289.892578	1361.366577
288.599609	1352.554321
287.306641	1347.805542
286.012695	1343.106934
284.717773	1345.526245
283.423828	1339.665771
282.128906	1337.056641
280.833984	1339.191895
279.538086	1343.139038
278.242188	1344.299805
276.946289	1345.947876
275.649414	1347.472900
274.353516	1346.528320
273.055664	1345.967163
271.758789	1348.800781
270.460938	1356.244873
269.163086	1351.501099
267.864258	1351.582397
266.566406	1349.994019
265.266602	1352.513916
263.967773	1354.033081
262.667969	1357.706177
261.368164	1361.403320
260.068359	1364.542847
258.767578	1367.389771
257.466797	1367.570190
256.165039	1372.649536
254.864258	1374.706787
253.561523	1380.067749
252.259766	1377.712158
250.957031	1386.927734
249.654297	1386.101318
248.351562	1389.919922
247.047852	1385.662109
245.744141	1386.823975
244.440430	1390.067749
243.135742	1382.518555
241.831055	1379.201050
240.526367	1376.888794
239.220703	1379.889038
237.915039	1371.666138
236.608398	1367.480713
235.302734	1367.809692
233.996094	1367.866089
232.688477	1364.099121
231.381836	1358.869629
230.074219	1365.948853
228.765625	1359.175903
227.458008	1361.460815
226.149414	1366.846680
224.839844	1361.833862
223.531250	1362.533203
222.221680	1363.564209
220.911133	1367.482544
219.601562	1364.159058
218.291016	1366.037231
216.979492	1368.086670
215.668945	1368.942139
214.357422	1372.367188
213.045898	1377.210938
211.733398	1375.227417
210.420898	1376.578857
209.108398	1381.280029
207.794922	1381.089722
206.481445	1380.907959
205.167969	1377.270752
203.853516	1377.708618
202.539062	1372.909668
201.224609	1373.618652
199.909180	1371.540649
198.593750	1367.265869
197.278320	1364.675293
195.961914	1369.199219
194.645508	1365.922852
193.329102	1362.678101
192.011719	1362.118652
190.695312	1360.766357
189.376953	1357.452026
188.059570	1359.802734
186.741211	1361.205566
185.421875	1356.214844
184.103516	1354.633911
182.784180	1354.363281
181.463867	1354.020020
180.144531	1351.867310
178.824219	1355.681396
177.503906	1354.632202
176.182617	1356.990112
174.861328	1358.248535
173.540039	1357.165039
172.217773	1356.696899
170.895508	1359.307861
169.573242	1360.687866
168.250000	1357.192749
166.926758	1363.863525
165.603516	1366.785400
164.279297	1364.016113
162.955078	1359.811279
161.630859	1358.276855
160.305664	1353.687378
158.980469	1353.961670
157.655273	1354.210083
156.329102	1355.446289
155.002930	1351.870728
153.676758	1354.524048
152.349609	1350.065063
151.022461	1346.505981
149.695312	1352.650391
148.367188	1347.157349
147.039062	1350.671021
145.710938	1348.742676
144.381836	1348.255615
143.052734	1348.711792
141.723633	1347.948608
140.393555	1351.525269
139.063477	1354.093872
137.733398	1350.019531
136.402344	1355.209106
135.071289	1352.726929
133.740234	1352.378906
132.408203	1355.876343
131.076172	1360.957275
129.743164	1357.140869
128.411133	1358.499023
127.078125	1354.629761
125.744141	1358.748535
124.410156	1359.448853
123.076172	1354.045654
121.742188	1354.687256
120.407227	1356.466431
119.072266	1353.013062
117.737305	1354.546387
116.401367	1353.191650
115.065430	1355.116943
113.728516	1356.411621
112.391602	1355.373901
111.054688	1359.285889
109.717773	1363.710815
108.379883	1365.803711
107.041992	1367.929077
105.703125	1371.010986
104.364258	1370.953369
103.025391	1380.032959
101.686523	1385.120117
100.346680	1393.660522
99.006836	1413.362305
97.666016	1418.706665
96.325195	1440.771606
94.984375	1461.482544
93.642578	1476.984497
92.300781	1485.926392
90.958984	1483.226685
89.617188	1478.555542
88.274414	1460.081177
86.930664	1443.154541
85.587891	1427.244995
84.244141	1404.300781
82.899414	1399.788818
81.555664	1392.376953
80.210938	1371.763306
78.865234	1367.585815
77.520508	1370.066406
76.174805	1367.162476
74.828125	1366.592163
73.482422	1364.294189
72.135742	1365.292725
70.788086	1362.220581
69.441406	1357.557617
68.093750	1354.015381
66.745117	1354.022339
65.396484	1348.217163
64.047852	1342.728760
62.699219	1342.164917
61.349609	1339.697388
60.000000	1325.748047
58.649414	1299.710693
57.299805	1246.818115
55.948242	1167.466675
54.597656	1062.820923
53.246094	939.676697
51.894531	804.497070
50.541992	673.502014
49.189453	545.628113
47.836914	427.538696
46.484375	316.768677
45.130859	219.119797
43.776367	136.809479
42.422852	78.803719
41.068359	41.411797
39.713867	22.396986
38.358398	12.924856
37.002930	9.464208
35.647461	7.579479
34.291016	7.107117
32.934570	6.464329
31.578125	6.146452
30.220703	6.303019
28.863281	5.993658
27.504883	6.050385
26.147461	5.757869
24.789062	6.026595
23.429688	5.514002
22.070312	5.782654
20.710938	5.635855
19.351562	5.642758
17.991211	5.591541
16.630859	5.888956
