#Wave		#Intensity
1219.192383	1681.230225
1218.113281	1673.383057
1217.034180	1679.332520
1215.954102	1670.778809
1214.874023	1670.692993
1213.793945	1668.861328
1212.712891	1666.199341
1211.632812	1667.070435
1210.551758	1675.964355
1209.470703	1660.011475
1208.389648	1659.833496
1207.307617	1668.801270
1206.225586	1659.900391
1205.143555	1667.402954
1204.061523	1665.945190
1202.978516	1671.236938
1201.895508	1667.557373
1200.812500	1666.240967
1199.729492	1660.421753
1198.645508	1662.051514
1197.562500	1659.080200
1196.478516	1662.183350
1195.393555	1665.951782
1194.309570	1663.637329
1193.224609	1665.638916
1192.139648	1668.394165
1191.054688	1675.726929
1189.969727	1665.052368
1188.883789	1668.102173
1187.797852	1667.609497
1186.711914	1669.586304
1185.625000	1668.589233
1184.539062	1671.006470
1183.452148	1669.780762
1182.365234	1669.661743
1181.277344	1665.071655
1180.190430	1675.030884
1179.102539	1672.969238
1178.014648	1672.356323
1176.925781	1681.591187
1175.837891	1681.775269
1174.749023	1672.017334
1173.660156	1670.528564
1172.570312	1669.257935
1171.481445	1672.755981
1170.391602	1662.738647
1169.301758	1670.085571
1168.211914	1671.648926
1167.121094	1676.836304
1166.030273	1670.217407
1164.939453	1670.180054
1163.848633	1672.600708
1162.756836	1668.687500
1161.666016	1669.431274
1160.574219	1665.540894
1159.481445	1663.565186
1158.389648	1659.853394
1157.296875	1663.549072
1156.204102	1657.591064
1155.111328	1658.692017
1154.018555	1656.719482
1152.924805	1653.678833
1151.831055	1651.919678
1150.737305	1655.431030
1149.642578	1650.906128
1148.548828	1647.389160
1147.454102	1646.241211
1146.358398	1648.868408
1145.263672	1647.746216
1144.167969	1648.969727
1143.072266	1646.528442
1141.976562	1644.005615
1140.880859	1645.991211
1139.784180	1632.412109
1138.687500	1632.555908
1137.590820	1634.748291
1136.494141	1631.813354
1135.396484	1631.277588
1134.298828	1632.624878
1133.201172	1634.274902
1132.103516	1641.971436
1131.004883	1640.281860
1129.906250	1631.607544
1128.807617	1627.238281
1127.708984	1628.650757
1126.609375	1628.362305
1125.510742	1629.573486
1124.411133	1632.894287
1123.310547	1637.024658
1122.210938	1640.973389
1121.110352	1629.070435
1120.009766	1632.316162
1118.908203	1635.950195
1117.807617	1633.926636
1116.706055	1637.830322
1115.604492	1634.541016
1114.502930	1632.682739
1113.400391	1631.194092
1112.298828	1638.142090
1111.195312	1635.664307
1110.092773	1637.339844
1108.990234	1635.815186
1107.886719	1637.182495
1106.783203	1636.620239
1105.679688	1637.004517
1104.575195	1638.764282
1103.470703	1643.008057
1102.366211	1647.909424
1101.261719	1648.183105
1100.157227	1647.209717
1099.051758	1645.577637
1097.946289	1643.792969
1096.840820	1641.860840
1095.734375	1639.847778
1094.627930	1642.281250
1093.521484	1639.396118
1092.415039	1642.563110
1091.308594	1640.321655
1090.201172	1639.299927
1089.093750	1641.827148
1087.986328	1644.837524
1086.877930	1640.772583
1085.770508	1640.917969
1084.662109	1642.555786
1083.552734	1635.050659
1082.444336	1635.395630
1081.334961	1635.801270
1080.225586	1636.827515
1079.116211	1629.538452
1078.006836	1635.017090
1076.896484	1637.639771
1075.786133	1626.271362
1074.675781	1622.742676
1073.564453	1631.628296
1072.454102	1624.034058
1071.342773	1626.406738
1070.230469	1624.917603
1069.119141	1623.088745
1068.006836	1620.808594
1066.894531	1624.702271
1065.782227	1620.077881
1064.669922	1618.804199
1063.556641	1613.492920
1062.443359	1614.006470
1061.330078	1618.231445
1060.215820	1615.336670
1059.102539	1610.983154
1057.988281	1610.234497
1056.874023	1606.385376
1055.758789	1604.766602
1054.643555	1603.543457
1053.528320	1610.355713
1052.413086	1609.830200
1051.297852	1609.891846
1050.181641	1607.752319
1049.065430	1606.969238
1047.949219	1604.107910
1046.833008	1605.707397
1045.715820	1603.549927
1044.598633	1606.877197
1043.481445	1601.147705
1042.363281	1601.760742
1041.245117	1603.166504
1040.126953	1604.329102
1039.008789	1605.102295
1037.890625	1605.587402
1036.771484	1610.507935
1035.652344	1611.147705
1034.533203	1610.243530
1033.413086	1600.811890
1032.293945	1611.325195
1031.173828	1607.447144
1030.052734	1603.716919
1028.932617	1612.509155
1027.811523	1608.320801
1026.690430	1599.989136
1025.569336	1608.433594
1024.447266	1607.631470
1023.326172	1609.728638
1022.204102	1611.613403
1021.081055	1604.371216
1019.958984	1605.501587
1018.835938	1600.843384
1017.712891	1609.580566
1016.589844	1610.899658
1015.465820	1614.032227
1014.342773	1618.328979
1013.218750	1609.317383
1012.093750	1607.882935
1010.969727	1612.504150
1009.844727	1612.881470
1008.719727	1614.628540
1007.594727	1608.758057
1006.468750	1610.379761
1005.342773	1607.075317
1004.216797	1610.641968
1003.090820	1605.313354
1001.963867	1605.129517
1000.836914	1607.180420
999.709961	1603.969971
998.583008	1601.937866
997.455078	1598.379272
996.328125	1602.862549
995.200195	1598.889526
994.071289	1598.701416
992.943359	1593.064819
991.814453	1593.943237
990.685547	1591.525635
989.555664	1597.678711
988.426758	1591.296875
987.296875	1589.640625
986.166016	1588.759521
985.036133	1585.300903
983.905273	1586.498535
982.775391	1581.383911
981.643555	1585.711670
980.512695	1578.952271
979.380859	1585.114624
978.249023	1581.845337
977.117188	1587.694824
975.985352	1587.438110
974.852539	1573.565796
973.719727	1577.583618
972.586914	1577.946777
971.453125	1583.281860
970.319336	1577.028442
969.186523	1580.727661
968.051758	1583.663330
966.917969	1576.298584
965.783203	1583.453979
964.648438	1580.137329
963.513672	1587.343140
962.377930	1580.575439
961.242188	1586.758423
960.106445	1587.127075
958.970703	1592.008423
957.833984	1586.775513
956.698242	1589.150635
955.560547	1584.730103
954.423828	1587.005005
953.286133	1596.467529
952.149414	1593.844604
951.010742	1594.388794
949.873047	1592.104614
948.734375	1590.545532
947.596680	1590.206909
946.457031	1596.715210
945.318359	1595.111084
944.178711	1590.930664
943.039062	1590.993042
941.899414	1592.670044
940.759766	1595.505127
939.619141	1584.078979
938.478516	1587.716431
937.337891	1600.161499
936.196289	1590.577271
935.054688	1591.227295
933.913086	1593.672363
932.771484	1589.643555
931.629883	1590.688477
930.487305	1590.344116
929.344727	1589.841431
928.201172	1590.885376
927.058594	1585.976807
925.915039	1583.228271
924.771484	1586.326294
923.627930	1585.079102
922.483398	1591.565308
921.338867	1587.801147
920.194336	1588.561646
919.048828	1586.713013
917.904297	1587.857788
916.758789	1584.077393
915.613281	1586.488525
914.466797	1589.750854
913.320312	1579.381226
912.173828	1584.682373
911.027344	1585.317993
909.880859	1580.823853
908.733398	1581.385986
907.585938	1578.862671
906.438477	1575.287598
905.290039	1577.517456
904.141602	1574.047241
902.993164	1574.073730
901.844727	1573.107300
900.695312	1575.035400
899.545898	1566.272339
898.396484	1574.870972
897.247070	1576.688843
896.096680	1574.833618
894.946289	1574.682251
893.795898	1575.001953
892.645508	1572.308960
891.494141	1575.954346
890.342773	1575.405151
889.191406	1579.386230
888.039062	1575.380371
886.886719	1579.697632
885.734375	1573.782471
884.582031	1581.639404
883.428711	1581.465942
882.275391	1578.809937
881.122070	1581.138306
879.968750	1581.096680
878.814453	1584.504639
877.660156	1584.892456
876.505859	1587.666748
875.351562	1584.131958
874.196289	1582.187378
873.041016	1582.374512
871.885742	1587.775146
870.730469	1586.885986
869.574219	1584.702637
868.417969	1587.754761
867.260742	1589.409180
866.104492	1591.531372
864.947266	1589.377686
863.790039	1585.356201
862.632812	1592.159912
861.474609	1586.910400
860.316406	1584.393433
859.158203	1585.655151
857.999023	1588.572998
856.840820	1591.849854
855.681641	1589.728027
854.522461	1590.563110
853.362305	1586.665039
852.202148	1579.205444
851.041992	1583.628540
849.881836	1587.645752
848.720703	1583.838867
847.560547	1583.282349
846.399414	1583.032227
845.237305	1579.821533
844.076172	1581.783447
842.914062	1583.025024
841.750977	1576.503052
840.588867	1574.743652
839.425781	1571.032715
838.262695	1571.590698
837.099609	1572.444214
835.936523	1564.892822
834.772461	1574.998779
833.608398	1573.847290
832.443359	1574.931885
831.279297	1569.771362
830.114258	1567.065674
828.949219	1575.341675
827.783203	1569.607788
826.618164	1574.721069
825.452148	1569.183228
824.285156	1576.835815
823.119141	1575.728760
821.952148	1568.393677
820.785156	1578.348755
819.618164	1574.344116
818.450195	1574.538696
817.282227	1578.074097
816.114258	1579.804688
814.946289	1576.068604
813.777344	1576.841919
812.608398	1587.551025
811.439453	1586.133423
810.270508	1585.406738
809.100586	1586.326294
807.930664	1590.888916
806.760742	1596.954834
805.589844	1588.700439
804.418945	1589.743164
803.248047	1587.916382
802.077148	1590.226318
800.905273	1595.340210
799.733398	1593.840576
798.561523	1593.068848
797.389648	1598.346680
796.216797	1601.975098
795.043945	1602.795166
793.871094	1603.946655
792.697266	1597.850952
791.523438	1601.817139
790.349609	1605.247559
789.175781	1603.997437
788.000977	1601.358276
786.826172	1598.927002
785.651367	1598.010254
784.475586	1595.527710
783.300781	1593.281372
782.125000	1598.253418
780.948242	1592.603394
779.772461	1593.949097
778.595703	1596.474609
777.418945	1595.175049
776.241211	1594.312500
775.064453	1596.255371
773.886719	1595.325439
772.708984	1593.724731
771.530273	1589.556030
770.351562	1583.755249
769.172852	1584.136108
767.994141	1585.938965
766.814453	1586.007690
765.634766	1584.630493
764.455078	1581.727295
763.275391	1586.466187
762.094727	1585.787842
760.914062	1587.582031
759.733398	1585.034058
758.551758	1584.073975
757.371094	1585.150146
756.188477	1589.919067
755.006836	1587.286133
753.824219	1589.945923
752.642578	1589.887451
751.458984	1597.318726
750.276367	1592.705444
749.092773	1588.065430
747.909180	1591.651367
746.725586	1591.520386
745.541016	1589.887207
744.356445	1595.672363
743.171875	1592.856689
741.987305	1594.154419
740.801758	1597.676025
739.616211	1594.732788
738.430664	1600.466431
737.244141	1596.614502
736.058594	1602.149658
734.871094	1596.590454
733.684570	1602.779297
732.497070	1606.777344
731.309570	1601.643677
730.122070	1600.980835
728.934570	1602.956055
727.746094	1608.147217
726.557617	1614.599365
725.369141	1612.988525
724.179688	1618.144775
722.990234	1612.246582
721.800781	1613.047852
720.611328	1611.186768
719.420898	1613.676514
718.230469	1616.402222
717.040039	1620.440063
715.848633	1621.640747
714.657227	1623.433350
713.465820	1622.021484
712.274414	1629.156738
711.082031	1626.540894
709.889648	1626.587402
708.697266	1630.013916
707.503906	1639.487793
706.310547	1636.644165
705.117188	1637.737915
703.923828	1638.211426
702.729492	1637.166504
701.535156	1636.779053
700.340820	1630.833252
699.145508	1639.789551
697.951172	1638.196655
696.755859	1634.251953
695.559570	1633.827148
694.363281	1630.196655
693.167969	1629.262817
691.970703	1630.037598
690.774414	1627.084717
689.577148	1635.906128
688.379883	1628.567261
687.182617	1629.175781
685.984375	1630.769043
684.786133	1628.756226
683.587891	1635.318970
682.388672	1634.864990
681.190430	1632.781616
679.991211	1632.935303
678.791016	1635.089355
677.591797	1637.722168
676.391602	1640.273682
675.191406	1642.536865
673.990234	1645.645264
672.789062	1645.555054
671.587891	1650.809204
670.386719	1648.391357
669.184570	1648.638428
667.982422	1651.736328
666.780273	1654.748169
665.578125	1658.392212
664.375000	1659.677979
663.171875	1659.644531
661.968750	1664.490112
660.764648	1658.568359
659.560547	1674.952637
658.356445	1671.961182
657.151367	1683.267334
655.947266	1685.134644
654.742188	1688.795410
653.536133	1690.327637
652.331055	1700.653564
651.125000	1703.778564
649.917969	1716.942261
648.711914	1719.177246
647.504883	1732.148315
646.297852	1732.554077
645.090820	1749.574951
643.882812	1762.160034
642.674805	1771.873901
641.466797	1776.246094
640.257812	1784.559448
639.049805	1792.457642
637.840820	1801.136597
636.630859	1801.813599
635.421875	1794.120850
634.211914	1787.551392
633.000977	1786.280396
631.791016	1769.369751
630.580078	1758.081543
629.369141	1747.991943
628.157227	1734.070801
626.946289	1725.841187
625.734375	1720.005493
624.522461	1710.981567
623.309570	1701.482056
622.096680	1699.166016
620.883789	1702.515625
619.670898	1691.590820
618.457031	1692.442017
617.243164	1687.152588
616.028320	1689.143311
614.814453	1691.569946
613.599609	1686.344360
612.384766	1687.157715
611.168945	1687.649780
609.954102	1683.612793
608.738281	1675.918213
607.521484	1679.304565
606.305664	1682.577759
605.088867	1681.867676
603.871094	1678.415894
602.654297	1680.545410
601.436523	1672.606323
600.218750	1676.029297
599.000977	1680.234009
597.782227	1677.068359
596.563477	1673.982910
595.344727	1674.719849
594.125000	1673.358765
592.905273	1674.956299
591.685547	1675.368164
590.465820	1675.437134
589.245117	1670.523315
588.024414	1678.821411
586.802734	1672.244019
585.582031	1672.091187
584.360352	1672.270874
583.138672	1671.507690
581.916016	1672.079956
580.693359	1666.919800
579.470703	1670.706299
578.248047	1671.831787
577.024414	1669.360962
575.800781	1672.968506
574.577148	1666.134033
573.352539	1669.846313
572.128906	1666.967285
570.903320	1664.896240
569.678711	1666.024658
568.453125	1674.497314
567.227539	1668.749268
566.001953	1670.451050
564.775391	1675.702148
563.548828	1671.877075
562.322266	1668.283691
561.094727	1674.497314
559.868164	1676.268677
558.639648	1674.952881
557.412109	1673.605347
556.183594	1678.473511
554.955078	1678.940796
553.726562	1680.721924
552.497070	1679.874390
551.267578	1682.714966
550.038086	1688.814087
548.808594	1689.548462
547.578125	1684.930908
546.347656	1682.072876
545.116211	1690.005127
543.885742	1691.728516
542.654297	1689.117920
541.421875	1689.135010
540.190430	1698.744019
538.958008	1695.294556
537.725586	1702.799194
536.492188	1703.851929
535.258789	1710.196899
534.025391	1713.279419
532.791992	1711.509399
531.557617	1719.819336
530.323242	1717.279785
529.088867	1718.486694
527.853516	1723.080688
526.619141	1727.845947
525.382812	1728.189819
524.147461	1734.632690
522.911133	1733.768433
521.674805	1735.991577
520.438477	1747.604736
519.201172	1743.889404
517.963867	1744.770874
516.726562	1750.323608
515.488281	1753.342041
514.250000	1759.514526
513.011719	1756.469971
511.772461	1753.308228
510.534180	1749.318481
509.293945	1751.052490
508.054688	1744.746460
506.814453	1745.474121
505.574219	1739.905029
504.333984	1730.000977
503.092773	1728.601440
501.851562	1727.566406
500.610352	1727.550415
499.369141	1717.976318
498.126953	1717.280396
496.884766	1715.998291
495.641602	1719.978516
494.399414	1721.235474
493.156250	1714.157715
491.912109	1720.173706
490.668945	1721.483643
489.424805	1718.208984
488.179688	1721.279053
486.935547	1722.614502
485.690430	1728.375488
484.445312	1734.070190
483.199219	1736.239746
481.953125	1743.329712
480.707031	1746.818726
479.460938	1749.572021
478.213867	1760.353149
476.966797	1763.889404
475.719727	1763.739136
474.471680	1774.748535
473.223633	1778.160645
471.975586	1791.114990
470.727539	1797.410889
469.478516	1814.793823
468.229492	1833.469971
466.979492	1862.503540
465.729492	1896.375122
464.479492	1936.368530
463.229492	1941.436401
461.978516	1923.391357
460.727539	1889.679199
459.476562	1851.876709
458.224609	1818.662231
456.973633	1796.044556
455.720703	1780.746948
454.468750	1770.649902
453.215820	1757.312500
451.962891	1750.339111
450.708984	1745.652954
449.456055	1744.378174
448.202148	1744.522217
446.947266	1745.332275
445.692383	1740.516113
444.437500	1740.116089
443.182617	1733.490234
441.927734	1731.450195
440.671875	1736.672363
439.415039	1740.781494
438.159180	1734.448853
436.902344	1741.472168
435.645508	1739.845093
434.387695	1740.948975
433.130859	1739.735474
431.873047	1746.651367
430.614258	1747.438110
429.356445	1748.408325
428.096680	1756.115112
426.837891	1752.131714
425.579102	1751.637939
424.319336	1758.911987
423.058594	1760.675049
421.798828	1762.065186
420.538086	1761.627197
419.277344	1763.540039
418.015625	1775.457397
416.753906	1778.981445
415.492188	1778.700073
414.230469	1783.751221
412.967773	1793.084351
411.705078	1786.163818
410.442383	1794.440918
409.178711	1799.969849
407.915039	1802.582642
406.651367	1812.694214
405.386719	1810.273560
404.122070	1821.016602
402.857422	1819.523315
401.591797	1833.543091
400.326172	1825.684692
399.060547	1831.858643
397.794922	1842.176758
396.528320	1848.026733
395.261719	1848.636353
393.994141	1851.442383
392.727539	1848.557617
391.459961	1841.095215
390.191406	1829.481445
388.922852	1821.555054
387.654297	1814.624756
386.385742	1810.020508
385.117188	1801.734741
383.847656	1799.216919
382.577148	1794.454712
381.307617	1783.355347
380.037109	1775.981079
378.766602	1777.892456
377.495117	1771.371216
376.223633	1771.981201
374.952148	1770.299561
373.680664	1765.311523
372.408203	1767.812500
371.135742	1762.086182
369.862305	1759.662598
368.589844	1763.031860
367.315430	1764.373169
366.041992	1759.884766
364.767578	1765.059082
363.493164	1762.885132
362.218750	1771.692383
360.943359	1761.741333
359.667969	1760.910645
358.392578	1759.721680
357.117188	1764.962646
355.840820	1771.970581
354.563477	1771.601929
353.287109	1772.077881
352.009766	1765.444824
350.732422	1757.683350
349.454102	1754.931763
348.176758	1759.651489
346.897461	1755.725586
345.619141	1760.632324
344.339844	1758.376465
343.060547	1754.373901
341.781250	1761.152100
340.500977	1758.575195
339.220703	1761.295898
337.940430	1763.300781
336.659180	1761.681274
335.377930	1763.720093
334.096680	1762.708862
332.814453	1763.816650
331.532227	1762.563477
330.250000	1764.471680
328.966797	1763.557495
327.683594	1756.016724
326.400391	1762.733032
325.116211	1756.106079
323.832031	1757.137695
322.547852	1762.019653
321.263672	1765.272827
319.978516	1769.754639
318.693359	1764.420410
317.407227	1759.079834
316.121094	1764.354004
314.834961	1764.204224
313.548828	1770.119385
312.261719	1774.684570
310.974609	1768.294434
309.686523	1770.283325
308.399414	1773.818604
307.111328	1774.121582
305.822266	1770.887939
304.533203	1774.236084
303.244141	1775.887329
301.955078	1777.134766
300.665039	1772.882812
299.375000	1784.047852
298.084961	1777.984375
296.793945	1779.784912
295.502930	1776.515503
294.211914	1774.038940
292.920898	1772.979736
291.628906	1777.239746
290.335938	1773.859863
289.043945	1772.154541
287.750977	1771.602783
286.458008	1770.483521
285.164062	1766.147705
283.870117	1767.862183
282.576172	1767.045288
281.281250	1769.665649
279.986328	1771.094116
278.691406	1773.232422
277.396484	1772.706299
276.100586	1774.738159
274.804688	1777.457275
273.507812	1788.885620
272.210938	1780.974976
270.914062	1786.780884
269.617188	1793.040649
268.319336	1792.557373
267.021484	1792.265625
265.723633	1805.325195
264.424805	1811.256348
263.125977	1814.880493
261.826172	1810.284790
260.526367	1803.792480
259.226562	1796.469360
257.926758	1796.584106
256.625977	1787.281860
255.325195	1780.796631
254.024414	1777.838135
252.722656	1781.401245
251.420898	1779.315552
250.119141	1780.101074
248.816406	1784.597046
247.513672	1782.658936
246.210938	1776.687500
244.907227	1780.162476
243.603516	1782.223755
242.299805	1779.334839
240.995117	1775.369385
239.690430	1773.413696
238.385742	1773.366943
237.080078	1773.229126
235.774414	1768.874878
234.468750	1771.522217
233.162109	1774.185425
231.855469	1778.860962
230.548828	1781.563965
229.241211	1776.287842
227.933594	1779.836182
226.625977	1784.682007
225.317383	1784.225342
224.008789	1789.088867
222.700195	1782.526855
221.390625	1787.996338
220.081055	1782.015259
218.771484	1786.007568
217.461914	1791.191528
216.151367	1791.973755
214.839844	1793.737549
213.529297	1794.647583
212.217773	1797.236206
210.906250	1802.956787
209.593750	1797.598022
208.281250	1802.261353
206.968750	1811.739624
205.655273	1810.432739
204.341797	1806.013916
203.028320	1815.311768
201.714844	1815.933838
200.400391	1820.447388
199.084961	1827.002930
197.770508	1834.482422
196.455078	1837.837280
195.139648	1835.336426
193.823242	1824.165649
192.506836	1811.880615
191.190430	1798.713867
189.873047	1795.817261
188.556641	1785.918213
187.238281	1787.341187
185.920898	1786.359863
184.602539	1777.951904
183.284180	1779.461060
181.964844	1772.565552
180.645508	1770.933472
179.326172	1767.881348
178.005859	1767.119263
176.685547	1766.875000
175.365234	1767.515625
174.044922	1770.224731
172.723633	1774.633301
171.402344	1773.686035
170.080078	1775.049927
168.757812	1781.862183
167.435547	1785.857300
166.112305	1791.634399
164.789062	1794.485474
163.465820	1805.713867
162.141602	1808.807129
160.818359	1829.023193
159.493164	1844.821289
158.168945	1856.626343
156.843750	1875.102295
155.517578	1910.966309
154.192383	1948.085693
152.866211	1995.422241
151.540039	2072.817139
150.212891	2170.047607
148.885742	2314.753418
147.558594	2529.073242
146.230469	2811.122314
144.902344	3154.409180
143.574219	3480.936768
142.245117	3659.871826
140.916016	3573.562012
139.586914	3302.782471
138.256836	2962.448975
136.926758	2650.942871
135.596680	2404.978760
134.265625	2257.600098
132.934570	2143.924316
131.603516	2072.883545
130.271484	2037.081299
128.939453	2009.456299
127.607422	1986.387817
126.274414	1959.364990
124.941406	1922.473633
123.608398	1880.874634
122.274414	1859.024414
120.940430	1829.710327
119.606445	1812.876465
118.271484	1799.329468
116.936523	1786.317627
115.601562	1776.821533
114.265625	1764.865601
112.929688	1762.369507
111.592773	1763.960205
110.256836	1749.164673
108.919922	1752.391968
107.582031	1750.449707
106.244141	1745.291870
104.906250	1749.116577
103.568359	1750.884521
102.229492	1748.302979
100.890625	1750.626587
99.550781	1754.491943
98.211914	1752.083740
96.871094	1743.718628
95.531250	1732.139038
94.190430	1725.812622
92.849609	1720.167114
91.507812	1714.953735
90.166992	1709.650146
88.824219	1700.019653
87.482422	1698.777100
86.139648	1694.263306
84.796875	1694.506592
83.453125	1699.528564
82.109375	1700.173584
80.765625	1697.684082
79.420898	1689.693726
78.076172	1690.323486
76.731445	1686.297363
75.385742	1688.261963
74.041016	1685.966797
72.694336	1683.282471
71.348633	1680.536377
70.001953	1676.013916
68.654297	1668.052124
67.307617	1668.664062
65.959961	1661.139404
64.611328	1657.970215
63.262695	1650.640137
61.914062	1652.264282
60.565430	1643.319214
59.215820	1633.654663
57.866211	1599.839966
56.516602	1535.933350
55.166016	1443.203491
53.815430	1321.370728
52.463867	1166.549438
51.113281	1008.136658
49.760742	852.505127
48.409180	700.705322
47.056641	552.245850
45.704102	415.860504
44.350586	286.933319
42.998047	184.165695
41.643555	106.487045
40.290039	57.314644
38.935547	31.512083
37.581055	19.296816
36.225586	14.316924
34.870117	12.317988
33.514648	11.115498
32.158203	10.342460
30.801758	9.886163
29.445312	9.825440
28.087891	9.502634
26.730469	9.575139
25.373047	9.294139
24.014648	9.728354
22.656250	9.846467
21.297852	9.465879
19.938477	9.426134
18.579102	9.685443
17.218750	10.143930
15.858398	10.245186
14.498047	11.300929
13.137695	11.758670
11.776367	12.070998
10.415039	13.030114
9.052734	14.855275
7.690430	17.578993
6.328125	24.383173
4.965820	43.198513
3.602539	91.117996
2.238281	190.277756
0.875000	412.979279
-0.489258	786.847961
-1.853516	1007.051392
-3.218750	959.012756
-4.583984	488.218811
-5.949219	124.797653
-7.315430	39.964325
-8.681641	21.258303
-10.048828	16.828053
-11.415039	13.911801
