#Wave		#Intensity
1241.677734	2144.864014
1240.603516	2144.717041
1239.528320	2154.453369
1238.453125	2139.705811
1237.377930	2141.221191
1236.302734	2141.213379
1235.226562	2143.861328
1234.150391	2138.353516
1233.074219	2150.449219
1231.998047	2133.444824
1230.920898	2132.520508
1229.843750	2142.606445
1228.766602	2138.750244
1227.689453	2145.790527
1226.612305	2142.212891
1225.534180	2150.569336
1224.456055	2134.684326
1223.377930	2140.577637
1222.298828	2138.992920
1221.220703	2136.466553
1220.141602	2136.180908
1219.061523	2133.493896
1217.982422	2137.356445
1216.902344	2134.178467
1215.822266	2131.822754
1214.742188	2140.319092
1213.662109	2149.929932
1212.581055	2137.921875
1211.500000	2137.640625
1210.418945	2143.725342
1209.337891	2145.948975
1208.255859	2147.905273
1207.174805	2147.678955
1206.092773	2144.384521
1205.009766	2146.897705
1203.927734	2142.457275
1202.844727	2148.635254
1201.761719	2148.481445
1200.678711	2150.761719
1199.594727	2167.256836
1198.510742	2165.655518
1197.426758	2163.054688
1196.342773	2159.689453
1195.258789	2168.748291
1194.173828	2166.944580
1193.088867	2159.088867
1192.003906	2167.663086
1190.917969	2172.737549
1189.833008	2183.546143
1188.747070	2174.850830
1187.661133	2184.458496
1186.574219	2189.311279
1185.488281	2192.140381
1184.401367	2195.004639
1183.314453	2191.681152
1182.226562	2191.105957
1181.139648	2193.111572
1180.051758	2199.418945
1178.963867	2195.604004
1177.875000	2197.399170
1176.787109	2200.044189
1175.698242	2203.600830
1174.609375	2207.020752
1173.519531	2210.361572
1172.430664	2214.016846
1171.340820	2209.478027
1170.250977	2211.266357
1169.161133	2217.161377
1168.070312	2221.251709
1166.979492	2224.066406
1165.888672	2223.484131
1164.797852	2218.844727
1163.707031	2223.064941
1162.615234	2215.510254
1161.523438	2209.928955
1160.431641	2214.964844
1159.338867	2217.222412
1158.247070	2217.628906
1157.154297	2220.354980
1156.060547	2222.490723
1154.967773	2232.832275
1153.874023	2227.765869
1152.780273	2217.652588
1151.686523	2219.735107
1150.592773	2215.128418
1149.498047	2215.038086
1148.403320	2222.911865
1147.308594	2228.162109
1146.213867	2234.111328
1145.118164	2232.335938
1144.022461	2224.634521
1142.926758	2223.758301
1141.831055	2230.779297
1140.734375	2224.988281
1139.637695	2231.428955
1138.541016	2221.799805
1137.444336	2226.096924
1136.346680	2220.671631
1135.249023	2226.932129
1134.151367	2230.155029
1133.053711	2227.940918
1131.955078	2223.938477
1130.856445	2231.986084
1129.757812	2229.978271
1128.659180	2236.556396
1127.559570	2237.814941
1126.460938	2234.887451
1125.361328	2247.965332
1124.260742	2247.644043
1123.161133	2248.077393
1122.060547	2242.861084
1120.959961	2247.393799
1119.859375	2250.231934
1118.757812	2246.392334
1117.656250	2259.436279
1116.554688	2252.310547
1115.453125	2254.652588
1114.350586	2260.907471
1113.249023	2264.906006
1112.146484	2270.018799
1111.042969	2274.709717
1109.940430	2270.875244
1108.836914	2272.891846
1107.733398	2277.742188
1106.629883	2269.386963
1105.526367	2272.511963
1104.421875	2273.549072
1103.317383	2279.938232
1102.212891	2281.366699
1101.107422	2282.462158
1100.001953	2291.296875
1098.896484	2291.740723
1097.791016	2286.229980
1096.685547	2297.773926
1095.579102	2293.662354
1094.472656	2302.601562
1093.366211	2298.041504
1092.258789	2296.227783
1091.152344	2294.720703
1090.044922	2311.972412
1088.936523	2303.824951
1087.829102	2302.112793
1086.720703	2297.165527
1085.612305	2306.163330
1084.503906	2304.293457
1083.395508	2315.877441
1082.286133	2306.130127
1081.176758	2298.285400
1080.067383	2302.046143
1078.957031	2298.041504
1077.847656	2300.065918
1076.737305	2310.876953
1075.626953	2307.609619
1074.515625	2305.411133
1073.405273	2301.902344
1072.293945	2305.508057
1071.181641	2299.130127
1070.070312	2304.613770
1068.958008	2306.794434
1067.845703	2298.694092
1066.733398	2296.301758
1065.621094	2302.282715
1064.507812	2302.797363
1063.394531	2304.178711
1062.281250	2303.272461
1061.166992	2297.053223
1060.053711	2308.723877
1058.939453	2313.831787
1057.825195	2302.983154
1056.709961	2299.058350
1055.595703	2310.844238
1054.480469	2297.714355
1053.364258	2306.235107
1052.249023	2309.129150
1051.132812	2302.924561
1050.016602	2302.989990
1048.900391	2311.627930
1047.784180	2305.653809
1046.666992	2317.658691
1045.549805	2313.237305
1044.432617	2307.584473
1043.314453	2316.918213
1042.197266	2308.791748
1041.079102	2321.584961
1039.959961	2322.649414
1038.841797	2330.481934
1037.722656	2336.468750
1036.603516	2328.669189
1035.484375	2338.860352
1034.365234	2331.774170
1033.245117	2342.035645
1032.125000	2345.340820
1031.004883	2339.618164
1029.883789	2345.164307
1028.763672	2348.103271
1027.642578	2354.138428
1026.520508	2353.186523
1025.399414	2362.812012
1024.277344	2366.473633
1023.155273	2367.033936
1022.033203	2364.258057
1020.910156	2362.464111
1019.788086	2363.426758
1018.665039	2375.368652
1017.541016	2366.922852
1016.417969	2368.295410
1015.293945	2363.180664
1014.169922	2368.777100
1013.045898	2378.519287
1011.920898	2372.390869
1010.795898	2371.651367
1009.670898	2375.724609
1008.545898	2377.141846
1007.419922	2375.312500
1006.294922	2374.712646
1005.168945	2376.990967
1004.041992	2375.783691
1002.916016	2384.506104
1001.789062	2383.177246
1000.662109	2381.994141
999.534180	2384.572754
998.407227	2375.452393
997.279297	2372.413818
996.151367	2376.398926
995.022461	2383.724854
993.894531	2376.778320
992.765625	2378.003174
991.636719	2384.188232
990.506836	2368.150879
989.377930	2373.675049
988.248047	2375.913086
987.118164	2379.888916
985.987305	2373.417236
984.857422	2381.117188
983.726562	2385.607910
982.595703	2377.426270
981.463867	2378.930664
980.332031	2383.428223
979.201172	2379.178223
978.068359	2387.678467
976.936523	2388.131348
975.803711	2385.717285
974.670898	2392.689453
973.538086	2384.638916
972.404297	2386.287109
971.271484	2388.482178
970.137695	2399.355957
969.002930	2399.465576
967.869141	2389.858643
966.734375	2393.811768
965.599609	2398.768066
964.464844	2404.478271
963.329102	2392.271729
962.193359	2401.356445
961.057617	2417.933350
959.921875	2410.055176
958.785156	2412.093262
957.649414	2422.113525
956.511719	2418.510498
955.375000	2423.131836
954.237305	2428.386475
953.100586	2433.429932
951.961914	2432.997803
950.824219	2431.657471
949.685547	2428.899170
948.546875	2435.539062
947.408203	2439.200928
946.269531	2452.447510
945.129883	2449.408447
943.990234	2457.909912
942.850586	2456.584717
941.709961	2458.790771
940.570312	2452.484375
939.429688	2456.120605
938.288086	2458.671143
937.147461	2455.723145
936.005859	2466.048584
934.864258	2462.086182
933.722656	2462.471436
932.580078	2463.395020
931.437500	2463.042969
930.294922	2459.899170
929.152344	2465.885986
928.008789	2465.656250
926.865234	2467.411865
925.721680	2464.742676
924.578125	2470.228760
923.433594	2455.760986
922.289062	2464.936279
921.144531	2469.638428
920.000000	2466.531982
918.854492	2465.669922
917.708984	2470.984375
916.563477	2461.162109
915.416992	2466.312012
914.271484	2466.208496
913.124023	2468.483398
911.977539	2467.670166
910.831055	2475.456543
909.683594	2461.092773
908.536133	2472.217773
907.387695	2468.983154
906.240234	2463.934814
905.091797	2473.870850
903.943359	2473.252686
902.793945	2477.667480
901.645508	2473.451416
900.496094	2475.407227
899.346680	2474.675293
898.196289	2474.154785
897.046875	2475.396729
895.896484	2480.264893
894.745117	2482.274902
893.594727	2478.602539
892.443359	2490.431152
891.291992	2489.337402
890.140625	2493.671387
888.988281	2497.640625
887.835938	2492.678955
886.683594	2503.446533
885.531250	2501.233154
884.377930	2506.077637
883.224609	2507.203613
882.071289	2510.125244
880.917969	2517.219727
879.763672	2523.953857
878.609375	2522.755127
877.455078	2527.263916
876.300781	2517.996826
875.145508	2526.615479
873.990234	2534.301514
872.833984	2535.367920
871.678711	2536.350586
870.522461	2545.728027
869.366211	2528.079102
868.209961	2544.791260
867.052734	2549.918457
865.895508	2541.565674
864.738281	2545.212646
863.581055	2544.082764
862.422852	2549.828857
861.264648	2553.890137
860.106445	2541.864746
858.947266	2556.105225
857.789062	2548.673584
856.629883	2560.558105
855.469727	2553.537354
854.310547	2546.393066
853.150391	2554.715820
851.990234	2553.321289
850.829102	2559.161865
849.668945	2552.848877
848.507812	2566.268066
847.346680	2559.625000
846.184570	2550.598145
845.023438	2564.139160
843.861328	2560.750977
842.698242	2559.312012
841.536133	2556.649414
840.373047	2556.046631
839.209961	2554.623535
838.046875	2550.157959
836.882812	2562.239746
835.718750	2559.913086
834.554688	2554.371826
833.390625	2558.724609
832.225586	2566.638184
831.060547	2570.723877
829.895508	2561.535400
828.729492	2563.875977
827.564453	2564.893066
826.398438	2568.296387
825.231445	2574.815918
824.065430	2577.377930
822.898438	2567.821533
821.731445	2572.763672
820.563477	2579.463867
819.396484	2580.667480
818.228516	2589.653809
817.060547	2594.106934
815.891602	2592.493408
814.722656	2598.803223
813.553711	2603.709473
812.384766	2602.770020
811.215820	2599.952637
810.045898	2605.979248
808.875977	2597.192383
807.705078	2605.903564
806.535156	2620.297607
805.364258	2616.822266
804.193359	2619.119629
803.021484	2625.238037
801.849609	2636.977539
800.677734	2630.812256
799.505859	2637.192871
798.333008	2644.032715
797.161133	2641.456055
795.988281	2644.724365
794.814453	2646.859863
793.641602	2640.270996
792.467773	2653.268066
791.292969	2650.412109
790.119141	2653.620605
788.944336	2649.294434
787.769531	2655.701904
786.594727	2657.781738
785.418945	2660.191650
784.243164	2660.530518
783.067383	2658.491943
781.891602	2657.639893
780.714844	2663.761719
779.538086	2657.711670
778.361328	2662.318848
777.184570	2665.091553
776.006836	2673.425049
774.829102	2669.227783
773.650391	2662.079834
772.472656	2667.038818
771.293945	2666.169922
770.115234	2665.631592
768.935547	2670.451660
767.756836	2669.825928
766.577148	2669.037354
765.396484	2667.674805
764.216797	2662.370605
763.036133	2669.284180
761.855469	2664.450195
760.674805	2676.479980
759.493164	2667.659424
758.311523	2671.343750
757.129883	2674.276123
755.947266	2673.495361
754.765625	2676.177002
753.583008	2678.246094
752.399414	2682.557373
751.216797	2695.279297
750.033203	2697.871338
748.849609	2691.656738
747.665039	2693.041260
746.480469	2691.898193
745.295898	2698.982422
744.111328	2706.291748
742.926758	2710.419922
741.741211	2706.781494
740.555664	2705.835205
739.369141	2711.288086
738.183594	2719.931885
736.997070	2722.851562
735.810547	2719.474854
734.623047	2729.532471
733.435547	2733.331543
732.248047	2743.523438
731.060547	2747.188477
729.872070	2748.138184
728.683594	2746.245850
727.495117	2748.615234
726.306641	2756.895508
725.117188	2750.149414
723.927734	2758.453369
722.738281	2767.579346
721.547852	2773.925049
720.357422	2768.048096
719.166992	2772.232422
717.976562	2772.464844
716.785156	2778.252686
715.593750	2780.767578
714.402344	2795.164062
713.209961	2787.247070
712.017578	2787.734863
710.825195	2793.364258
709.632812	2795.866699
708.439453	2810.378906
707.246094	2810.259033
706.052734	2808.062256
704.858398	2810.377930
703.665039	2812.673584
702.469727	2809.635498
701.275391	2820.077148
700.080078	2817.600586
698.884766	2819.853271
697.689453	2829.070801
696.494141	2833.538574
695.297852	2820.835205
694.101562	2824.230957
692.904297	2830.092285
691.708008	2835.290527
690.510742	2832.053467
689.313477	2836.116455
688.115234	2846.989014
686.916992	2839.772949
685.718750	2838.840820
684.520508	2860.393066
683.321289	2847.644043
682.122070	2862.596436
680.922852	2869.534424
679.723633	2870.679688
678.523438	2864.512451
677.323242	2874.384277
676.122070	2880.860107
674.921875	2890.417480
673.720703	2881.702148
672.519531	2889.350586
671.317383	2890.215088
670.115234	2900.774902
668.913086	2901.955078
667.710938	2906.707520
666.507812	2915.058350
665.304688	2909.723877
664.101562	2903.861572
662.898438	2907.041260
661.694336	2912.704834
660.490234	2908.486084
659.285156	2910.621094
658.081055	2920.201660
656.875977	2911.143066
655.670898	2908.361084
654.464844	2907.584229
653.258789	2916.467285
652.052734	2910.604736
650.846680	2919.435547
649.639648	2919.877197
648.432617	2917.464844
647.225586	2925.403076
646.017578	2936.306396
644.810547	2932.857666
643.601562	2928.045654
642.393555	2932.258301
641.184570	2940.439209
639.975586	2947.233887
638.766602	2943.103516
637.556641	2950.892578
636.347656	2956.045410
635.136719	2956.809570
633.926758	2945.528564
632.715820	2959.516113
631.504883	2974.056152
630.293945	2975.112549
629.082031	2981.793457
627.871094	2989.798828
626.658203	2987.677734
625.446289	3003.613037
624.233398	3010.466064
623.020508	3009.774414
621.807617	3011.637695
620.593750	3019.004150
619.379883	3029.027832
618.166016	3029.828613
616.951172	3033.539551
615.737305	3030.029297
614.522461	3024.317383
613.306641	3038.238770
612.091797	3037.014160
610.875977	3038.883057
609.659180	3026.510742
608.443359	3029.893799
607.226562	3030.379150
606.009766	3020.155273
604.791992	3026.649170
603.575195	3019.343018
602.357422	3024.182861
601.138672	3038.652344
599.920898	3023.033691
598.702148	3025.014160
597.483398	3026.428223
596.263672	3016.528076
595.043945	3016.419678
593.824219	3028.508057
592.604492	3019.867432
591.383789	3018.943115
590.163086	3026.659668
588.942383	3021.594727
587.721680	3014.372803
586.500000	3014.392334
585.278320	3023.150635
584.055664	3025.154053
582.833008	3018.514404
581.610352	3024.470459
580.387695	3023.922852
579.164062	3032.449951
577.941406	3019.283691
576.716797	3020.628418
575.493164	3032.954590
574.268555	3030.158447
573.043945	3025.915771
571.819336	3023.255615
570.593750	3029.430420
569.368164	3037.430908
568.142578	3032.240234
566.916016	3029.865479
565.689453	3031.519775
564.462891	3035.782715
563.236328	3041.520508
562.008789	3035.836914
560.781250	3046.184570
559.552734	3057.428223
558.325195	3047.445557
557.096680	3061.289062
555.867188	3055.104980
554.638672	3069.642334
553.409180	3063.091309
552.179688	3072.885010
550.949219	3071.559814
549.719727	3074.517090
548.489258	3072.952881
547.257812	3071.499268
546.027344	3079.654297
544.795898	3080.500977
543.564453	3078.729492
542.332031	3089.309814
541.099609	3096.613281
539.867188	3096.652100
538.634766	3095.783936
537.401367	3095.758301
536.167969	3097.577148
534.933594	3112.721924
533.700195	3113.313477
532.465820	3117.715088
531.231445	3118.602051
529.996094	3114.385498
528.760742	3124.528564
527.525391	3128.117920
526.290039	3133.920898
525.053711	3129.644043
523.817383	3120.811523
522.581055	3125.684326
521.343750	3136.137207
520.106445	3135.454346
518.869141	3128.160400
517.630859	3135.338135
516.392578	3145.508301
515.154297	3135.699707
513.916016	3139.533203
512.676758	3141.619141
511.437500	3143.908936
510.197266	3142.835693
508.958008	3146.976807
507.717773	3156.032471
506.476562	3162.302490
505.236328	3161.684326
503.995117	3166.812012
502.753906	3171.964111
501.511719	3160.688965
500.270508	3168.899170
499.027344	3166.324219
497.785156	3175.132812
496.541992	3175.523438
495.298828	3174.414795
494.055664	3171.317627
492.811523	3172.552246
491.567383	3170.322998
490.323242	3189.802002
489.079102	3185.532227
487.833984	3184.416504
486.588867	3186.116455
485.342773	3196.097412
484.096680	3208.366455
482.850586	3209.224854
481.604492	3219.654297
480.357422	3225.300537
479.110352	3217.152344
477.863281	3219.577393
476.616211	3219.887451
475.368164	3220.843994
474.119141	3228.720703
472.871094	3242.544434
471.622070	3246.360352
470.373047	3246.540039
469.124023	3241.310059
467.874023	3237.708740
466.624023	3250.839111
465.373047	3245.741943
464.123047	3244.226807
462.872070	3248.638672
461.621094	3249.433350
460.369141	3243.897949
459.117188	3244.499023
457.865234	3241.189941
456.612305	3239.712158
455.360352	3241.908447
454.106445	3247.784424
452.853516	3244.971924
451.599609	3239.449219
450.345703	3245.437744
449.091797	3244.666016
447.836914	3251.158447
446.582031	3251.483154
445.327148	3241.708252
444.071289	3257.941406
442.815430	3268.290039
441.559570	3267.453613
440.303711	3269.552002
439.046875	3287.850830
437.790039	3275.137207
436.532227	3284.501953
435.274414	3292.460938
434.016602	3315.677490
432.758789	3327.232666
431.500000	3318.731689
430.241211	3338.820068
428.982422	3341.019287
427.722656	3349.888428
426.462891	3350.841797
425.203125	3362.988037
423.943359	3379.343994
422.682617	3392.283203
421.421875	3408.036865
420.160156	3430.412842
418.898438	3446.140137
417.636719	3464.584473
416.375000	3468.802734
415.112305	3471.900391
413.849609	3483.786865
412.585938	3485.886475
411.323242	3484.065186
410.059570	3477.449951
408.794922	3468.206543
407.531250	3449.356689
406.266602	3420.893555
405.001953	3413.932617
403.736328	3408.630615
402.470703	3399.966553
401.205078	3394.990723
399.939453	3385.776367
398.672852	3378.269043
397.406250	3370.270020
396.138672	3368.085938
394.871094	3370.963379
393.603516	3368.507812
392.335938	3352.306396
391.067383	3366.501465
389.798828	3362.213867
388.530273	3371.384277
387.260742	3351.308350
385.991211	3353.097656
384.721680	3347.215576
383.451172	3359.082031
382.180664	3349.218506
380.910156	3355.812744
379.639648	3353.074951
378.368164	3361.601074
377.096680	3351.460938
375.824219	3358.002686
374.551758	3363.249512
373.279297	3364.597900
372.006836	3372.971680
370.733398	3368.294189
369.459961	3364.274902
368.186523	3373.364014
366.912109	3371.950439
365.637695	3377.023193
364.362305	3375.267822
363.087891	3369.522949
361.812500	3383.791260
360.537109	3381.640625
359.260742	3384.495117
357.984375	3384.432861
356.708008	3390.628418
355.430664	3381.596436
354.153320	3377.510986
352.875977	3386.000977
351.598633	3375.482422
350.320312	3374.130371
349.041992	3378.780762
347.762695	3388.550049
346.483398	3396.067627
345.204102	3397.433594
343.924805	3390.442139
342.644531	3393.537354
341.364258	3397.763916
340.083984	3406.961426
338.802734	3416.899170
337.521484	3412.038330
336.239258	3423.251221
334.958008	3423.085938
333.675781	3427.834473
332.392578	3421.266357
331.110352	3424.102295
329.827148	3434.051758
328.543945	3438.184570
327.259766	3437.908447
325.975586	3454.177979
324.691406	3450.191406
323.406250	3462.125000
322.121094	3460.901611
320.835938	3466.930908
319.550781	3468.929688
318.264648	3490.048340
316.978516	3497.728760
315.691406	3506.809570
314.404297	3507.518555
313.117188	3513.486328
311.830078	3524.914795
310.541992	3539.708740
309.253906	3560.131836
307.964844	3573.445557
306.676758	3581.193359
305.387695	3593.355957
304.097656	3598.129883
302.807617	3609.642822
301.517578	3618.204102
300.227539	3640.876709
298.936523	3638.633789
297.645508	3647.255127
296.354492	3657.349854
295.062500	3639.274902
293.770508	3623.581543
292.478516	3618.800781
291.185547	3605.211914
289.892578	3580.593506
288.599609	3557.331787
287.306641	3546.036621
286.012695	3527.633545
284.717773	3529.500000
283.423828	3521.952393
282.128906	3502.333984
280.833984	3508.101562
279.538086	3508.361328
278.242188	3511.387451
276.946289	3511.798096
275.649414	3512.173340
274.353516	3513.471191
273.055664	3494.399658
271.758789	3497.250000
270.460938	3498.684570
269.163086	3490.317627
267.864258	3482.019775
266.566406	3477.356201
265.266602	3475.645752
263.967773	3473.149414
262.667969	3477.453369
261.368164	3483.787598
260.068359	3488.042725
258.767578	3488.275391
257.466797	3489.397217
256.165039	3485.484619
254.864258	3492.102783
253.561523	3496.721924
252.259766	3490.056152
250.957031	3493.177490
249.654297	3488.417969
248.351562	3493.708496
247.047852	3493.360107
245.744141	3490.954834
244.440430	3502.920410
243.135742	3498.080322
241.831055	3503.572510
240.526367	3501.191650
239.220703	3504.538330
237.915039	3503.243408
236.608398	3495.243164
235.302734	3504.401367
233.996094	3517.240967
232.688477	3518.564941
231.381836	3512.567383
230.074219	3527.808105
228.765625	3529.244385
227.458008	3542.271729
226.149414	3547.474121
224.839844	3540.642822
223.531250	3538.144287
222.221680	3526.747803
220.911133	3515.921143
219.601562	3507.409668
218.291016	3503.628174
216.979492	3497.638428
215.668945	3493.300781
214.357422	3491.771973
213.045898	3499.785889
211.733398	3478.973633
210.420898	3484.874023
209.108398	3483.386230
207.794922	3480.351074
206.481445	3481.039795
205.167969	3474.907471
203.853516	3476.056396
202.539062	3473.583252
201.224609	3479.193359
199.909180	3481.348633
198.593750	3474.148926
197.278320	3471.385742
195.961914	3482.434326
194.645508	3477.109131
193.329102	3475.444092
192.011719	3470.817383
190.695312	3472.188721
189.376953	3467.581543
188.059570	3481.290283
186.741211	3480.494385
185.421875	3470.119873
184.103516	3464.527832
182.784180	3461.467529
181.463867	3463.046387
180.144531	3449.395996
178.824219	3460.008789
177.503906	3459.170410
176.182617	3455.510986
174.861328	3467.810059
173.540039	3464.572754
172.217773	3462.191162
170.895508	3464.016357
169.573242	3463.146729
168.250000	3454.347168
166.926758	3461.198730
165.603516	3471.233643
164.279297	3469.995117
162.955078	3460.220459
161.630859	3465.937500
160.305664	3461.299561
158.980469	3461.669922
157.655273	3468.322754
156.329102	3465.637207
155.002930	3465.460449
153.676758	3467.062744
152.349609	3462.753174
151.022461	3456.262939
149.695312	3465.666016
148.367188	3459.275391
147.039062	3463.566895
145.710938	3462.789795
144.381836	3468.127197
143.052734	3470.870605
141.723633	3463.359619
140.393555	3462.552490
139.063477	3462.552002
137.733398	3459.453369
136.402344	3462.219482
135.071289	3461.255371
133.740234	3458.883545
132.408203	3468.252197
131.076172	3472.788330
129.743164	3457.091797
128.411133	3461.738037
127.078125	3447.732666
125.744141	3451.971924
124.410156	3444.033447
123.076172	3440.479248
121.742188	3430.693848
120.407227	3430.029297
119.072266	3419.278076
117.737305	3414.552734
116.401367	3409.144775
115.065430	3413.404053
113.728516	3401.449951
112.391602	3399.461426
111.054688	3407.021484
109.717773	3411.508301
108.379883	3408.783691
107.041992	3404.380615
105.703125	3408.788086
104.364258	3407.208252
103.025391	3409.596680
101.686523	3405.297852
100.346680	3398.902344
99.006836	3398.627441
97.666016	3394.569580
96.325195	3384.495605
94.984375	3380.746094
93.642578	3371.025146
92.300781	3370.293457
90.958984	3356.498535
89.617188	3374.024902
88.274414	3361.539062
86.930664	3364.445801
85.587891	3357.381592
84.244141	3357.909180
82.899414	3357.822998
81.555664	3367.501465
80.210938	3343.583984
78.865234	3350.914062
77.520508	3348.096436
76.174805	3349.094238
74.828125	3348.140625
73.482422	3347.833008
72.135742	3340.645264
70.788086	3347.557129
69.441406	3331.974854
68.093750	3320.773926
66.745117	3316.116455
65.396484	3302.768066
64.047852	3296.195312
62.699219	3287.206543
61.349609	3264.426514
60.000000	3238.515869
58.649414	3167.989746
57.299805	3032.828613
55.948242	2838.715576
54.597656	2570.662598
53.246094	2268.043945
51.894531	1934.394287
50.541992	1616.687134
49.189453	1306.569214
47.836914	1020.354614
46.484375	749.926208
45.130859	517.608154
43.776367	322.149994
42.422852	183.693268
41.068359	96.601120
39.713867	49.824333
38.358398	28.016356
37.002930	18.965906
35.647461	15.271400
34.291016	13.781229
32.934570	12.683071
31.578125	11.797692
30.220703	11.690748
28.863281	11.238629
27.504883	11.252468
26.147461	10.937872
24.789062	11.271811
23.429688	10.762068
22.070312	10.626458
20.710938	10.229264
19.351562	10.264090
17.991211	10.655892
16.630859	10.748694
