#Wave	#Intensity
1241.677734	2840.082031
1240.603516	2838.941895
1239.528320	2849.262939
1238.453125	2834.627441
1237.377930	2826.881836
1236.302734	2824.583496
1235.226562	2830.064209
1234.150391	2828.070312
1233.074219	2840.220947
1231.998047	2825.531982
1230.920898	2824.714600
1229.843750	2838.545898
1228.766602	2829.181396
1227.689453	2840.243652
1226.612305	2833.219482
1225.534180	2837.879883
1224.456055	2827.438965
1223.377930	2829.731445
1222.298828	2827.280029
1221.220703	2825.284668
1220.141602	2816.288818
1219.061523	2820.736572
1217.982422	2828.989990
1216.902344	2822.393555
1215.822266	2822.288086
1214.742188	2828.397461
1213.662109	2840.147949
1212.581055	2828.878174
1211.500000	2820.987793
1210.418945	2825.315674
1209.337891	2838.371582
1208.255859	2830.890869
1207.174805	2839.096436
1206.092773	2834.420654
1205.009766	2830.873291
1203.927734	2834.499023
1202.844727	2843.864014
1201.761719	2838.455322
1200.678711	2842.759277
1199.594727	2855.430176
1198.510742	2858.576904
1197.426758	2855.398438
1196.342773	2848.388184
1195.258789	2848.441162
1194.173828	2857.291260
1193.088867	2851.663818
1192.003906	2864.244873
1190.917969	2861.172363
1189.833008	2875.669678
1188.747070	2872.637451
1187.661133	2880.736572
1186.574219	2883.774902
1185.488281	2886.536133
1184.401367	2889.259766
1183.314453	2884.216797
1182.226562	2889.421631
1181.139648	2885.579834
1180.051758	2894.057129
1178.963867	2897.543457
1177.875000	2889.047607
1176.787109	2903.582275
1175.698242	2904.480713
1174.609375	2911.813477
1173.519531	2912.678467
1172.430664	2917.668457
1171.340820	2910.219971
1170.250977	2908.965332
1169.161133	2915.573486
1168.070312	2924.141357
1166.979492	2928.382080
1165.888672	2929.266846
1164.797852	2931.946533
1163.707031	2944.181152
1162.615234	2932.791504
1161.523438	2930.482910
1160.431641	2935.770508
1159.338867	2938.300537
1158.247070	2931.598633
1157.154297	2939.129639
1156.060547	2933.902344
1154.967773	2944.321533
1153.874023	2937.019287
1152.780273	2918.641113
1151.686523	2926.661377
1150.592773	2926.406006
1149.498047	2921.538086
1148.403320	2924.899170
1147.308594	2932.116211
1146.213867	2937.303467
1145.118164	2943.937012
1144.022461	2932.060791
1142.926758	2923.646729
1141.831055	2932.833252
1140.734375	2931.473145
1139.637695	2932.971191
1138.541016	2920.486328
1137.444336	2919.906250
1136.346680	2923.890625
1135.249023	2932.024902
1134.151367	2936.374756
1133.053711	2928.637939
1131.955078	2927.300293
1130.856445	2930.126221
1129.757812	2932.231445
1128.659180	2939.406494
1127.559570	2935.298096
1126.460938	2935.135254
1125.361328	2954.088379
1124.260742	2956.595703
1123.161133	2952.773682
1122.060547	2952.647461
1120.959961	2954.916748
1119.859375	2963.150146
1118.757812	2948.575928
1117.656250	2960.369629
1116.554688	2962.824219
1115.453125	2958.600586
1114.350586	2964.829834
1113.249023	2971.128174
1112.146484	2979.200439
1111.042969	2983.818115
1109.940430	2982.055420
1108.836914	2981.700684
1107.733398	2992.505371
1106.629883	2985.620850
1105.526367	2986.466797
1104.421875	2985.619629
1103.317383	2996.270020
1102.212891	2991.403564
1101.107422	2994.791504
1100.001953	3011.511719
1098.896484	3011.282227
1097.791016	3007.110352
1096.685547	3022.774658
1095.579102	3015.100098
1094.472656	3020.722656
1093.366211	3021.388184
1092.258789	3014.070312
1091.152344	3016.169678
1090.044922	3032.080566
1088.936523	3026.416260
1087.829102	3030.177490
1086.720703	3026.426270
1085.612305	3030.521729
1084.503906	3029.017578
1083.395508	3045.417725
1082.286133	3038.152832
1081.176758	3027.088867
1080.067383	3031.885986
1078.957031	3025.228516
1077.847656	3022.556396
1076.737305	3036.605957
1075.626953	3032.274658
1074.515625	3031.208496
1073.405273	3026.031006
1072.293945	3027.151123
1071.181641	3023.271729
1070.070312	3031.339111
1068.958008	3027.754639
1067.845703	3026.521973
1066.733398	3021.741943
1065.621094	3022.372803
1064.507812	3026.280518
1063.394531	3029.085693
1062.281250	3029.424805
1061.166992	3026.797852
1060.053711	3029.666260
1058.939453	3033.050049
1057.825195	3025.463379
1056.709961	3023.304688
1055.595703	3036.035400
1054.480469	3029.885254
1053.364258	3030.540771
1052.249023	3027.521729
1051.132812	3028.708252
1050.016602	3025.108643
1048.900391	3031.933838
1047.784180	3036.455322
1046.666992	3041.151367
1045.549805	3030.718018
1044.432617	3030.910645
1043.314453	3037.119629
1042.197266	3033.946533
1041.079102	3052.720703
1039.959961	3050.625244
1038.841797	3058.539795
1037.722656	3072.385254
1036.603516	3051.159424
1035.484375	3062.704834
1034.365234	3063.931885
1033.245117	3075.196533
1032.125000	3080.845703
1031.004883	3080.777100
1029.883789	3081.262207
1028.763672	3083.847900
1027.642578	3101.778076
1026.520508	3093.979492
1025.399414	3103.929932
1024.277344	3106.376465
1023.155273	3107.362061
1022.033203	3104.473389
1020.910156	3105.378418
1019.788086	3109.953369
1018.665039	3118.297119
1017.541016	3113.809082
1016.417969	3112.513916
1015.293945	3112.254150
1014.169922	3114.711914
1013.045898	3132.505371
1011.920898	3127.967773
1010.795898	3125.670898
1009.670898	3117.889404
1008.545898	3126.668945
1007.419922	3131.556641
1006.294922	3119.765869
1005.168945	3134.144531
1004.041992	3123.034424
1002.916016	3136.398193
1001.789062	3127.582031
1000.662109	3134.936523
999.534180	3141.616211
998.407227	3124.231201
997.279297	3127.700684
996.151367	3130.552490
995.022461	3136.775879
993.894531	3130.113037
992.765625	3129.950684
991.636719	3134.654053
990.506836	3112.300781
989.377930	3130.896973
988.248047	3127.085205
987.118164	3132.258545
985.987305	3124.611084
984.857422	3134.661865
983.726562	3139.464844
982.595703	3137.361328
981.463867	3128.969971
980.332031	3142.642334
979.201172	3135.240723
978.068359	3137.543213
976.936523	3140.622314
975.803711	3139.487061
974.670898	3154.536377
973.538086	3141.767090
972.404297	3141.523193
971.271484	3146.364990
970.137695	3157.115479
969.002930	3157.400635
967.869141	3156.117188
966.734375	3151.240967
965.599609	3163.989990
964.464844	3166.793945
963.329102	3153.478271
962.193359	3163.895264
961.057617	3188.887939
959.921875	3168.125244
958.785156	3178.124023
957.649414	3198.242432
956.511719	3180.867920
955.375000	3192.634033
954.237305	3196.898193
953.100586	3202.649414
951.961914	3208.958252
950.824219	3206.081055
949.685547	3204.023438
948.546875	3216.064453
947.408203	3215.363281
946.269531	3226.449219
945.129883	3234.616211
943.990234	3244.622314
942.850586	3235.359619
941.709961	3237.144531
940.570312	3238.616455
939.429688	3242.666504
938.288086	3241.359619
937.147461	3239.009033
936.005859	3249.367676
934.864258	3253.262207
933.722656	3258.069336
932.580078	3249.175781
931.437500	3264.399902
930.294922	3250.136963
929.152344	3254.035400
928.008789	3257.205811
926.865234	3254.187256
925.721680	3248.587891
924.578125	3254.678467
923.433594	3245.532715
922.289062	3260.165771
921.144531	3259.111572
920.000000	3259.941406
918.854492	3257.664307
917.708984	3257.305664
916.563477	3248.785889
915.416992	3258.243164
914.271484	3262.336670
913.124023	3272.322998
911.977539	3259.340576
910.831055	3267.112305
909.683594	3256.080322
908.536133	3278.703369
907.387695	3275.839111
906.240234	3267.437988
905.091797	3275.448486
903.943359	3276.597412
902.793945	3278.620361
901.645508	3275.516846
900.496094	3284.308350
899.346680	3276.739990
898.196289	3274.703857
897.046875	3280.969971
895.896484	3287.503174
894.745117	3289.685303
893.594727	3290.747559
892.443359	3297.621338
891.291992	3296.939941
890.140625	3305.480469
888.988281	3309.130127
887.835938	3300.791016
886.683594	3324.767090
885.531250	3321.820801
884.377930	3322.469971
883.224609	3323.387939
882.071289	3329.229492
880.917969	3329.718994
879.763672	3352.768799
878.609375	3352.151855
877.455078	3345.093750
876.300781	3340.654297
875.145508	3345.768555
873.990234	3358.699951
872.833984	3367.413330
871.678711	3369.991699
870.522461	3372.602783
869.366211	3371.169189
868.209961	3380.734863
867.052734	3381.427490
865.895508	3379.865234
864.738281	3384.996582
863.581055	3377.785400
862.422852	3385.376953
861.264648	3393.583740
860.106445	3383.143311
858.947266	3401.535889
857.789062	3395.092529
856.629883	3406.781006
855.469727	3400.596680
854.310547	3405.388916
853.150391	3410.762695
851.990234	3405.943604
850.829102	3405.923340
849.668945	3404.458252
848.507812	3410.915527
847.346680	3409.050781
846.184570	3399.977539
845.023438	3416.077148
843.861328	3401.126953
842.698242	3403.233398
841.536133	3411.234375
840.373047	3407.927979
839.209961	3403.418945
838.046875	3401.119629
836.882812	3418.938232
835.718750	3418.658936
834.554688	3413.461426
833.390625	3415.311523
832.225586	3416.151855
831.060547	3429.917725
829.895508	3416.149414
828.729492	3413.650391
827.564453	3426.365234
826.398438	3431.960449
825.231445	3432.745850
824.065430	3431.899414
822.898438	3432.214111
821.731445	3439.872559
820.563477	3447.565674
819.396484	3454.592529
818.228516	3460.537842
817.060547	3464.749756
815.891602	3466.765381
814.722656	3476.253906
813.553711	3478.429688
812.384766	3483.018555
811.215820	3490.260742
810.045898	3495.611572
808.875977	3498.484375
807.705078	3508.061523
806.535156	3517.383301
805.364258	3508.843018
804.193359	3519.003418
803.021484	3520.675293
801.849609	3529.078369
800.677734	3527.084473
799.505859	3536.103027
798.333008	3537.122803
797.161133	3544.314209
795.988281	3543.241943
794.814453	3541.818115
793.641602	3543.118164
792.467773	3560.498535
791.292969	3553.833496
790.119141	3552.873779
788.944336	3550.846924
787.769531	3553.184570
786.594727	3565.611328
785.418945	3557.942383
784.243164	3564.204346
783.067383	3567.361328
781.891602	3566.873047
780.714844	3572.479736
779.538086	3573.050049
778.361328	3573.308105
777.184570	3576.145996
776.006836	3593.655029
774.829102	3582.948242
773.650391	3575.725342
772.472656	3581.256592
771.293945	3589.304688
770.115234	3580.623535
768.935547	3585.665039
767.756836	3586.318604
766.577148	3585.291748
765.396484	3581.068115
764.216797	3583.333740
763.036133	3590.069824
761.855469	3578.358643
760.674805	3590.422852
759.493164	3591.865234
758.311523	3589.240234
757.129883	3589.764160
755.947266	3594.682129
754.765625	3594.334961
753.583008	3597.525146
752.399414	3611.019043
751.216797	3619.710205
750.033203	3618.177734
748.849609	3616.788818
747.665039	3620.035400
746.480469	3626.531494
745.295898	3630.717529
744.111328	3633.986084
742.926758	3644.280273
741.741211	3639.002930
740.555664	3645.676270
739.369141	3653.916992
738.183594	3651.696045
736.997070	3660.644775
735.810547	3660.011719
734.623047	3673.439453
733.435547	3679.113525
732.248047	3695.339844
731.060547	3694.165527
729.872070	3691.385010
728.683594	3700.711670
727.495117	3704.124268
726.306641	3708.361572
725.117188	3696.135254
723.927734	3718.442871
722.738281	3720.831299
721.547852	3718.824951
720.357422	3724.247314
719.166992	3724.061279
717.976562	3730.830566
716.785156	3736.572510
715.593750	3743.984375
714.402344	3754.647461
713.209961	3742.752441
712.017578	3758.979492
710.825195	3761.496338
709.632812	3754.312012
708.439453	3775.001221
707.246094	3772.699463
706.052734	3769.357666
704.858398	3771.559814
703.665039	3775.793701
702.469727	3780.535889
701.275391	3787.421143
700.080078	3791.647217
698.884766	3797.949707
697.689453	3814.454590
696.494141	3811.059082
695.297852	3802.477051
694.101562	3797.423828
692.904297	3802.611572
691.708008	3805.135986
690.510742	3815.157471
689.313477	3810.670410
688.115234	3821.816895
686.916992	3810.118652
685.718750	3806.741943
684.520508	3831.989014
683.321289	3823.182617
682.122070	3842.428711
680.922852	3844.544434
679.723633	3843.745605
678.523438	3837.112305
677.323242	3851.231689
676.122070	3851.150391
674.921875	3863.707520
673.720703	3866.447754
672.519531	3874.097656
671.317383	3864.522705
670.115234	3884.946289
668.913086	3889.687500
667.710938	3896.576904
666.507812	3904.096191
665.304688	3899.362305
664.101562	3896.577393
662.898438	3908.213867
661.694336	3909.545166
660.490234	3907.645020
659.285156	3904.099854
658.081055	3920.254150
656.875977	3915.310547
655.670898	3918.454346
654.464844	3916.786377
653.258789	3926.422119
652.052734	3932.003418
650.846680	3948.748779
649.639648	3939.797852
648.432617	3943.284912
647.225586	3954.416260
646.017578	3968.427246
644.810547	3966.803711
643.601562	3965.657227
642.393555	3964.109131
641.184570	3974.557617
639.975586	3991.104736
638.766602	3982.098633
637.556641	3992.436279
636.347656	3996.439941
635.136719	3996.872314
633.926758	3985.137695
632.715820	3984.093262
631.504883	3994.425537
630.293945	3997.415527
629.082031	3994.633789
627.871094	3996.465820
626.658203	3991.169434
625.446289	4004.382812
624.233398	4004.859863
623.020508	3999.759521
621.807617	4006.035400
620.593750	4007.538818
619.379883	4012.329834
618.166016	4007.658691
616.951172	4027.227783
615.737305	4021.596924
614.522461	4024.059570
613.306641	4041.913818
612.091797	4047.839600
610.875977	4051.783936
609.659180	4053.116455
608.443359	4059.382324
607.226562	4061.417236
606.009766	4051.271240
604.791992	4072.844238
603.575195	4070.555664
602.357422	4071.462158
601.138672	4091.261719
599.920898	4080.437500
598.702148	4092.288086
597.483398	4089.245117
596.263672	4088.926270
595.043945	4094.348389
593.824219	4116.764648
592.604492	4102.897461
591.383789	4107.343750
590.163086	4123.199219
588.942383	4119.924805
587.721680	4115.786621
586.500000	4117.275391
585.278320	4123.074707
584.055664	4123.123047
582.833008	4120.750977
581.610352	4134.431641
580.387695	4135.025391
579.164062	4137.021973
577.941406	4128.468262
576.716797	4137.583496
575.493164	4153.552734
574.268555	4145.884766
573.043945	4140.931641
571.819336	4140.625977
570.593750	4153.435059
569.368164	4156.253906
568.142578	4152.258789
566.916016	4144.535645
565.689453	4167.633301
564.462891	4168.046387
563.236328	4171.302734
562.008789	4169.262207
560.781250	4188.751953
559.552734	4197.136719
558.325195	4194.009766
557.096680	4211.400879
555.867188	4195.965820
554.638672	4216.710449
553.409180	4214.769531
552.179688	4218.867676
550.949219	4218.312988
549.719727	4229.782715
548.489258	4230.234375
547.257812	4231.515625
546.027344	4241.862793
544.795898	4242.896973
543.564453	4251.659180
542.332031	4250.265137
541.099609	4263.982422
539.867188	4266.794922
538.634766	4273.251465
537.401367	4272.685059
536.167969	4271.619629
534.933594	4285.762207
533.700195	4300.227539
532.465820	4301.474121
531.231445	4307.325195
529.996094	4303.095703
528.760742	4318.450684
527.525391	4319.255859
526.290039	4333.328613
525.053711	4323.750977
523.817383	4314.013184
522.581055	4323.099121
521.343750	4337.794922
520.106445	4335.977051
518.869141	4326.385254
517.630859	4337.920898
516.392578	4346.596191
515.154297	4337.326660
513.916016	4354.060059
512.676758	4344.810547
511.437500	4357.651855
510.197266	4356.061523
508.958008	4361.611816
507.717773	4368.378906
506.476562	4372.816895
505.236328	4369.233887
503.995117	4368.968750
502.753906	4374.939453
501.511719	4366.705566
500.270508	4373.595703
499.027344	4372.682617
497.785156	4383.870605
496.541992	4386.066406
495.298828	4400.655762
494.055664	4403.817383
492.811523	4402.932617
491.567383	4406.264160
490.323242	4430.429688
489.079102	4422.660156
487.833984	4430.124023
486.588867	4437.570312
485.342773	4448.003906
484.096680	4466.884766
482.850586	4469.172852
481.604492	4490.158691
480.357422	4499.648926
479.110352	4493.327637
477.863281	4508.112305
476.616211	4518.350586
475.368164	4532.383789
474.119141	4551.335938
472.871094	4597.434570
471.622070	4637.949707
470.373047	4685.351562
469.124023	4740.390137
467.874023	4825.030273
466.624023	4960.958496
465.373047	5068.390137
464.123047	5120.880371
462.872070	5099.921875
461.621094	4988.397949
460.369141	4854.789551
459.117188	4749.700684
457.865234	4681.182129
456.612305	4636.066406
455.360352	4599.485840
454.106445	4589.994629
452.853516	4575.822266
451.599609	4545.812012
450.345703	4557.011230
449.091797	4551.895020
447.836914	4547.874512
446.582031	4540.687988
445.327148	4527.368652
444.071289	4543.620605
442.815430	4548.228027
441.559570	4538.578613
440.303711	4534.744629
439.046875	4556.777832
437.790039	4525.049805
436.532227	4542.183105
435.274414	4552.102051
434.016602	4556.351074
432.758789	4575.545898
431.500000	4561.180176
430.241211	4583.620117
428.982422	4572.285645
427.722656	4582.920410
426.462891	4580.469727
425.203125	4578.553711
423.943359	4588.321777
422.682617	4597.121582
421.421875	4603.225586
420.160156	4621.270508
418.898438	4626.756348
417.636719	4637.460938
416.375000	4627.031250
415.112305	4625.291504
413.849609	4622.573242
412.585938	4630.195312
411.323242	4645.509766
410.059570	4650.387207
408.794922	4655.324707
407.531250	4654.980469
406.266602	4650.019043
405.001953	4656.996094
403.736328	4662.541016
402.470703	4673.267578
401.205078	4679.357910
399.939453	4673.953125
398.672852	4677.917480
397.406250	4672.835938
396.138672	4682.750977
394.871094	4688.059082
393.603516	4707.056152
392.335938	4693.179688
391.067383	4705.015625
389.798828	4701.298340
388.530273	4711.123047
387.260742	4693.978516
385.991211	4695.749512
384.721680	4685.993164
383.451172	4705.803711
382.180664	4699.782227
380.910156	4699.068359
379.639648	4701.130859
378.368164	4710.835449
377.096680	4706.672852
375.824219	4709.036621
374.551758	4733.979492
373.279297	4726.502930
372.006836	4741.829590
370.733398	4738.251953
369.459961	4731.958008
368.186523	4754.171875
366.912109	4743.670410
365.637695	4750.177734
364.362305	4756.627930
363.087891	4761.653320
361.812500	4766.729004
360.537109	4767.809082
359.260742	4785.650391
357.984375	4786.348633
356.708008	4807.417969
355.430664	4821.706543
354.153320	4823.893066
352.875977	4823.143066
351.598633	4791.109863
350.320312	4776.465332
349.041992	4784.298340
347.762695	4789.151367
346.483398	4794.019043
345.204102	4801.161133
343.924805	4783.997559
342.644531	4783.651855
341.364258	4793.290527
340.083984	4804.479980
338.802734	4813.517090
337.521484	4807.866211
336.239258	4815.637207
334.958008	4817.193848
333.675781	4818.515625
332.392578	4816.600098
331.110352	4822.753418
329.827148	4836.101562
328.543945	4840.640137
327.259766	4833.367188
325.975586	4857.712402
324.691406	4850.710449
323.406250	4869.307129
322.121094	4854.976074
320.835938	4852.437012
319.550781	4852.072754
318.264648	4878.078613
316.978516	4867.058594
315.691406	4866.325195
314.404297	4864.249512
313.117188	4875.864258
311.830078	4867.598633
310.541992	4876.930176
309.253906	4879.687012
307.964844	4892.445801
306.676758	4887.546875
305.387695	4883.868164
304.097656	4877.396484
302.807617	4868.738770
301.517578	4876.147461
300.227539	4901.321289
298.936523	4893.095703
297.645508	4886.558105
296.354492	4911.805664
295.062500	4902.017090
293.770508	4890.288574
292.478516	4908.179688
291.185547	4917.015137
289.892578	4905.696289
288.599609	4894.605469
287.306641	4896.509277
286.012695	4889.483398
284.717773	4907.402344
283.423828	4914.638672
282.128906	4901.315430
280.833984	4916.993652
279.538086	4926.522949
278.242188	4935.815918
276.946289	4947.142578
275.649414	4959.991699
274.353516	4966.485840
273.055664	4949.991699
271.758789	4954.909180
270.460938	4976.544434
269.163086	4968.297363
267.864258	4966.142578
266.566406	4969.353516
265.266602	4985.528809
263.967773	4996.663086
262.667969	4997.664551
261.368164	4986.994141
260.068359	4980.609863
258.767578	4981.040039
257.466797	4984.199707
256.165039	4981.560059
254.864258	4970.218750
253.561523	4985.777344
252.259766	4981.182129
250.957031	4985.597168
249.654297	4973.259277
248.351562	4983.301270
247.047852	4980.342773
245.744141	4979.680664
244.440430	4988.041504
243.135742	4988.498047
241.831055	4996.933594
240.526367	4987.851562
239.220703	5004.176270
237.915039	5000.609375
236.608398	4987.536621
235.302734	5007.573730
233.996094	5011.504883
232.688477	5014.227539
231.381836	5001.266602
230.074219	5024.754883
228.765625	5016.118164
227.458008	5034.648926
226.149414	5045.252441
224.839844	5034.173828
223.531250	5053.241211
222.221680	5049.628906
220.911133	5058.229492
219.601562	5058.925781
218.291016	5068.803223
216.979492	5086.647461
215.668945	5084.071289
214.357422	5106.401367
213.045898	5118.738770
211.733398	5112.884766
210.420898	5133.292480
209.108398	5143.139648
207.794922	5149.494629
206.481445	5148.051758
205.167969	5150.821289
203.853516	5150.993652
202.539062	5140.443848
201.224609	5142.975586
199.909180	5147.235840
198.593750	5121.536621
197.278320	5110.848145
195.961914	5106.952148
194.645508	5098.244629
193.329102	5088.215820
192.011719	5080.961426
190.695312	5073.345703
189.376953	5053.379395
188.059570	5072.312988
186.741211	5068.164062
185.421875	5042.192383
184.103516	5032.564453
182.784180	5034.607422
181.463867	5030.676270
180.144531	5018.473145
178.824219	5029.134277
177.503906	5025.248535
176.182617	5022.924805
174.861328	5024.002930
173.540039	5020.645996
172.217773	5012.317871
170.895508	5015.143555
169.573242	5016.165527
168.250000	4996.627441
166.926758	5005.324707
165.603516	5030.983887
164.279297	5032.178223
162.955078	5010.095703
161.630859	5024.645020
160.305664	5032.428223
158.980469	5030.777832
157.655273	5040.829102
156.329102	5045.224121
155.002930	5043.170410
153.676758	5059.101074
152.349609	5058.426758
151.022461	5063.224121
149.695312	5104.801758
148.367188	5122.013672
147.039062	5158.160645
145.710938	5195.151367
144.381836	5251.882812
143.052734	5285.237305
141.723633	5288.561523
140.393555	5263.592773
139.063477	5225.722656
137.733398	5167.971191
136.402344	5130.121582
135.071289	5099.170410
133.740234	5078.305664
132.408203	5087.786133
131.076172	5103.564453
129.743164	5127.140137
128.411133	5167.903809
127.078125	5184.009277
125.744141	5156.750000
124.410156	5093.731445
123.076172	5041.697266
121.742188	5005.572754
120.407227	4990.532715
119.072266	4974.234863
117.737305	4962.963379
116.401367	4948.780273
115.065430	4954.602051
113.728516	4947.893066
112.391602	4931.171875
111.054688	4944.175781
109.717773	4952.177734
108.379883	4949.404297
107.041992	4944.665527
105.703125	4942.805664
104.364258	4940.971680
103.025391	4941.469727
101.686523	4933.827148
100.346680	4937.424316
99.006836	4930.624023
97.666016	4922.719238
96.325195	4908.155762
94.984375	4900.419434
93.642578	4894.938965
92.300781	4883.030762
90.958984	4871.569336
89.617188	4886.553711
88.274414	4868.557617
86.930664	4873.125000
85.587891	4872.200684
84.244141	4861.414551
82.899414	4874.872559
81.555664	4882.393555
80.210938	4848.043457
78.865234	4856.800781
77.520508	4856.433594
76.174805	4854.904297
74.828125	4857.259277
73.482422	4853.897461
72.135742	4847.446289
70.788086	4854.767578
69.441406	4831.754395
68.093750	4816.514648
66.745117	4815.133789
65.396484	4790.395996
64.047852	4773.498535
62.699219	4751.741211
61.349609	4734.145508
60.000000	4715.520996
58.649414	4647.254395
57.299805	4511.291016
55.948242	4309.035156
54.597656	3983.660156
53.246094	3585.723877
51.894531	3111.775635
50.541992	2643.370605
49.189453	2173.231689
47.836914	1740.194214
46.484375	1330.063721
45.130859	958.959961
43.776367	638.777893
42.422852	389.256744
41.068359	217.926758
39.713867	116.690216
38.358398	64.895111
37.002930	42.934681
35.647461	32.970734
34.291016	29.057159
32.934570	26.902098
31.578125	25.243315
30.220703	24.708668
28.863281	23.899765
27.504883	23.207695
26.147461	22.894285
24.789062	22.385683
23.429688	22.392582
22.070312	22.553183
20.710938	21.808310
19.351562	21.474867
17.991211	21.681232
16.630859	22.111599
