#Wave	#Intensity
1219.256836	3931.076904
1218.177734	3930.810059
1217.098633	3946.845215
1216.018555	3923.784424
1214.938477	3918.692139
1213.858398	3918.812988
1212.778320	3931.344971
1211.697266	3927.863037
1210.616211	3943.009521
1209.535156	3927.221924
1208.454102	3929.887939
1207.372070	3946.886963
1206.290039	3940.585938
1205.208008	3955.164307
1204.125977	3955.603760
1203.042969	3968.242432
1201.960938	3954.427246
1200.877930	3963.937256
1199.793945	3964.358154
1198.710938	3960.328369
1197.626953	3959.139404
1196.542969	3965.784912
1195.458984	3974.765381
1194.374023	3982.304932
1193.290039	3983.136230
1192.205078	3991.810059
1191.119141	4004.725586
1190.034180	3993.492432
1188.948242	3996.977539
1187.862305	4006.575684
1186.776367	4011.313965
1185.690430	4016.299561
1184.603516	4023.153320
1183.516602	4019.203125
1182.429688	4024.951660
1181.342773	4019.984375
1180.254883	4032.832275
1179.166992	4041.324463
1178.079102	4038.572021
1176.991211	4057.337402
1175.902344	4069.241699
1174.813477	4055.733398
1173.724609	4045.958740
1172.635742	4051.859131
1171.545898	4055.030762
1170.457031	4048.598877
1169.367188	4069.310791
1168.276367	4068.404785
1167.186523	4082.624756
1166.095703	4072.246582
1165.004883	4082.659668
1163.914062	4084.508789
1162.822266	4082.393799
1161.730469	4088.007324
1160.638672	4067.858643
1159.546875	4076.419678
1158.455078	4080.215576
1157.362305	4089.777344
1156.269531	4074.460693
1155.176758	4078.248779
1154.083008	4081.533936
1152.990234	4092.666260
1151.896484	4084.888184
1150.802734	4090.305908
1149.708008	4094.910889
1148.613281	4084.773682
1147.519531	4082.331543
1146.423828	4086.743652
1145.329102	4090.142822
1144.233398	4103.747070
1143.137695	4102.522949
1142.041992	4094.508545
1140.946289	4100.096680
1139.849609	4084.777344
1138.752930	4073.501465
1137.656250	4088.366455
1136.559570	4085.251953
1135.461914	4091.833008
1134.364258	4099.069824
1133.266602	4099.153320
1132.168945	4118.880371
1131.070312	4105.885254
1129.972656	4092.617432
1128.874023	4103.308105
1127.774414	4103.898438
1126.675781	4101.754883
1125.576172	4115.358398
1124.476562	4126.598633
1123.375977	4127.561523
1122.276367	4144.187988
1121.175781	4132.990723
1120.075195	4132.576172
1118.974609	4154.877441
1117.873047	4149.596680
1116.771484	4157.298828
1115.669922	4154.971680
1114.568359	4143.989746
1113.466797	4158.921387
1112.364258	4172.237793
1111.261719	4169.324707
1110.159180	4175.013672
1109.055664	4175.504395
1107.952148	4177.632324
1106.848633	4189.644531
1105.745117	4207.472656
1104.641602	4203.592285
1103.537109	4204.800781
1102.432617	4237.218750
1101.328125	4235.050781
1100.222656	4234.232422
1099.117188	4225.296387
1098.011719	4235.155273
1096.906250	4243.140625
1095.800781	4228.326172
1094.694336	4247.854492
1093.587891	4246.303223
1092.481445	4243.068359
1091.374023	4244.614258
1090.267578	4252.575195
1089.160156	4260.022461
1088.051758	4262.464844
1086.944336	4268.219238
1085.835938	4263.361816
1084.727539	4270.569336
1083.619141	4264.765625
1082.510742	4254.936523
1081.401367	4263.855957
1080.291992	4268.445312
1079.182617	4257.913574
1078.072266	4262.633301
1076.962891	4276.481445
1075.852539	4271.303711
1074.742188	4256.930664
1073.630859	4276.920410
1072.519531	4268.370605
1071.409180	4270.179199
1070.296875	4274.069336
1069.185547	4263.549316
1068.073242	4258.313965
1066.960938	4286.377441
1065.848633	4275.353027
1064.736328	4270.311035
1063.623047	4263.870117
1062.509766	4274.124023
1061.396484	4271.594727
1060.282227	4290.409668
1059.168945	4278.454590
1058.054688	4262.870605
1056.940430	4279.378906
1055.825195	4266.105957
1054.710938	4264.977539
1053.595703	4289.929199
1052.479492	4284.234375
1051.364258	4278.602539
1050.248047	4290.929688
1049.131836	4291.626953
1048.015625	4285.348633
1046.899414	4296.042480
1045.782227	4299.370605
1044.665039	4295.707031
1043.547852	4299.033203
1042.429688	4308.338867
1041.312500	4309.059082
1040.194336	4322.781738
1039.076172	4319.226562
1037.957031	4320.154785
1036.837891	4340.682617
1035.718750	4349.763672
1034.599609	4343.596191
1033.480469	4336.654785
1032.360352	4358.687500
1031.240234	4339.576172
1030.120117	4356.875977
1028.999023	4364.109863
1027.878906	4362.761719
1026.757812	4363.231934
1025.635742	4368.409668
1024.514648	4370.941895
1023.392578	4383.966309
1022.270508	4379.418457
1021.148438	4378.519531
1020.025391	4390.099121
1018.903320	4385.149414
1017.780273	4402.539062
1016.656250	4414.261230
1015.533203	4421.027344
1014.409180	4432.402832
1013.285156	4411.790039
1012.161133	4426.330566
1011.036133	4416.206543
1009.912109	4427.847656
1008.787109	4432.437012
1007.661133	4433.907715
1006.536133	4437.224121
1005.410156	4430.056152
1004.284180	4446.267578
1003.158203	4438.132324
1002.031250	4447.177246
1000.904297	4444.722168
999.777344	4452.482910
998.650391	4442.374023
997.522461	4439.455078
996.394531	4444.822754
995.266602	4449.001465
994.138672	4433.631348
993.009766	4436.734375
991.881836	4426.724609
990.751953	4426.246582
989.623047	4453.472656
988.493164	4442.920410
987.364258	4434.616211
986.233398	4439.861816
985.103516	4439.753906
983.972656	4443.621094
982.841797	4436.681152
981.710938	4451.280273
980.580078	4441.131348
979.448242	4457.329102
978.316406	4449.263184
977.184570	4464.363770
976.052734	4464.926270
974.919922	4450.944824
973.787109	4453.388672
972.654297	4457.714355
971.520508	4476.227051
970.387695	4464.889648
969.253906	4473.352051
968.119141	4484.160645
966.985352	4460.223633
965.850586	4484.930176
964.715820	4490.816895
963.581055	4493.278320
962.445312	4493.763672
961.310547	4517.936523
960.173828	4524.117676
959.038086	4524.018066
957.902344	4528.370605
956.765625	4539.318359
955.628906	4532.583984
954.491211	4543.485352
953.354492	4559.018555
952.216797	4544.782715
951.079102	4575.488281
949.940430	4558.124023
948.802734	4561.887695
947.664062	4566.125488
946.525391	4577.733887
945.385742	4592.062500
944.247070	4573.210449
943.107422	4578.862793
941.967773	4591.114746
940.827148	4603.767578
939.686523	4581.368164
938.545898	4593.833008
937.405273	4620.338379
936.264648	4597.780762
935.123047	4600.422852
933.981445	4626.892578
932.839844	4608.214355
931.697266	4615.493164
930.554688	4629.129883
929.412109	4621.822754
928.269531	4621.167969
927.126953	4616.023926
925.983398	4615.750488
924.839844	4628.169922
923.695312	4628.988770
922.551758	4641.853027
921.407227	4639.322754
920.262695	4643.822266
919.117188	4645.355469
917.972656	4642.149414
916.827148	4638.890137
915.680664	4634.902832
914.535156	4637.366211
913.388672	4637.399414
912.242188	4648.454590
911.095703	4642.512207
909.949219	4648.632812
908.801758	4642.465332
907.654297	4653.429199
906.506836	4644.227539
905.358398	4646.976562
904.209961	4654.823242
903.061523	4657.960938
901.913086	4649.998535
900.763672	4659.469238
899.614258	4640.386719
898.464844	4677.738770
897.315430	4674.069336
896.165039	4679.292480
895.014648	4682.166504
893.864258	4678.625000
892.713867	4671.165039
891.562500	4684.309082
890.411133	4698.683105
889.259766	4716.589844
888.107422	4715.605957
886.955078	4728.241699
885.802734	4715.667480
884.650391	4736.717285
883.498047	4740.126465
882.344727	4734.715332
881.191406	4753.038086
880.037109	4763.546387
878.883789	4772.464355
877.729492	4770.047852
876.575195	4782.866699
875.419922	4776.360352
874.264648	4781.080566
873.110352	4783.266602
871.954102	4798.048828
870.798828	4804.313477
869.642578	4793.337891
868.486328	4816.583984
867.330078	4818.527832
866.172852	4826.942871
865.015625	4834.631348
863.858398	4820.375977
862.701172	4838.070801
861.542969	4834.143555
860.385742	4835.332520
859.226562	4834.727051
858.068359	4838.652832
856.909180	4852.564941
855.750000	4867.498047
854.590820	4857.567383
853.431641	4852.042480
852.271484	4839.854980
851.111328	4848.936035
849.951172	4855.618164
848.790039	4865.697266
847.628906	4858.301758
846.467773	4854.050293
845.306641	4851.618652
844.144531	4861.799805
842.982422	4870.590820
841.820312	4856.540039
840.658203	4857.410645
839.495117	4844.655273
838.332031	4859.722656
837.168945	4867.895508
836.004883	4850.360352
834.841797	4881.171875
833.676758	4873.734375
832.512695	4882.403809
831.348633	4877.484863
830.183594	4876.541504
829.018555	4884.496094
827.852539	4878.163574
826.687500	4892.801758
825.521484	4891.830566
824.354492	4906.434082
823.188477	4910.057617
822.021484	4897.234863
820.854492	4921.333008
819.687500	4908.178711
818.519531	4920.119141
817.352539	4936.347656
816.183594	4928.732422
815.015625	4930.519531
813.846680	4933.059570
812.677734	4962.238281
811.508789	4961.412598
810.339844	4960.958008
809.169922	4969.110840
808.000000	4986.511230
806.830078	5005.205566
805.659180	4982.371094
804.488281	4980.806152
803.317383	4998.855957
802.146484	5022.855957
800.974609	5020.066895
799.802734	5037.819824
798.630859	5025.113281
797.458984	5029.692871
796.286133	5050.275879
795.113281	5054.451660
793.940430	5070.552246
792.766602	5062.440918
791.593750	5069.462891
790.418945	5077.654785
789.245117	5078.480469
788.070312	5088.237793
786.896484	5072.818359
785.720703	5079.029785
784.545898	5070.575195
783.370117	5075.285156
782.194336	5088.828125
781.018555	5082.487793
779.841797	5093.108398
778.665039	5095.513184
777.488281	5107.410645
776.311523	5095.371582
775.133789	5112.106445
773.956055	5106.323242
772.778320	5115.238281
771.600586	5110.582031
770.421875	5094.423828
769.243164	5100.340820
768.064453	5118.116211
766.884766	5103.550781
765.705078	5105.486816
764.525391	5095.610352
763.345703	5113.961914
762.165039	5115.481445
760.984375	5112.451660
759.803711	5120.285645
758.622070	5123.316406
757.440430	5119.348633
756.258789	5142.765137
755.077148	5133.648926
753.894531	5131.509277
752.711914	5152.661621
751.529297	5176.958496
750.346680	5163.416992
749.163086	5156.365234
747.979492	5168.121094
746.795898	5182.103027
745.611328	5171.569824
744.426758	5191.006836
743.242188	5194.034668
742.057617	5191.318848
740.872070	5200.098633
739.686523	5209.221680
738.500977	5219.535156
737.314453	5209.753906
736.128906	5239.275879
734.942383	5234.527832
733.754883	5228.682617
732.568359	5252.256836
731.380859	5261.872559
730.192383	5268.564941
729.004883	5266.764648
727.816406	5285.516602
726.627930	5307.370605
725.439453	5298.199219
724.250000	5305.798828
723.060547	5311.974609
721.871094	5307.021973
720.681641	5318.688965
719.491211	5328.670410
718.300781	5334.235840
717.110352	5326.548828
715.918945	5344.821289
714.727539	5351.107422
713.536133	5348.192383
712.344727	5366.057129
711.152344	5351.558105
709.959961	5370.322266
708.767578	5376.881348
707.574219	5393.575684
706.381836	5390.689453
705.188477	5382.334961
703.994141	5387.818848
702.800781	5390.514648
701.606445	5398.598145
700.411133	5385.430664
699.216797	5409.445312
698.021484	5421.877930
696.826172	5412.293457
695.630859	5415.212402
694.434570	5419.196777
693.238281	5415.447266
692.041992	5415.370117
690.844727	5425.766602
689.648438	5442.605469
688.451172	5434.814941
687.252930	5443.830566
686.055664	5459.280273
684.857422	5448.426758
683.659180	5473.662598
682.459961	5478.169922
681.260742	5474.640625
680.061523	5474.671875
678.862305	5481.306152
677.662109	5495.127930
676.462891	5509.719238
675.261719	5510.416992
674.061523	5522.405762
672.860352	5544.242676
671.659180	5539.341797
670.458008	5534.306152
669.255859	5540.468750
668.053711	5549.037598
666.851562	5557.672363
665.649414	5558.146973
664.446289	5562.404297
663.243164	5567.940430
662.040039	5564.005371
660.835938	5565.911621
659.631836	5596.905762
658.427734	5580.418457
657.222656	5616.625000
656.018555	5615.740234
654.813477	5611.566406
653.607422	5606.757324
652.402344	5617.708008
651.196289	5620.829590
649.990234	5643.402832
648.783203	5634.222168
647.576172	5644.663086
646.369141	5632.070312
645.162109	5642.000488
643.954102	5649.541016
642.746094	5657.044922
641.538086	5658.843262
640.330078	5651.978027
639.121094	5655.148926
637.912109	5661.609863
636.703125	5666.274414
635.493164	5657.535156
634.283203	5663.728516
633.073242	5679.776367
631.862305	5668.397949
630.651367	5666.263184
629.440430	5673.252441
628.229492	5676.033691
627.017578	5679.814941
625.805664	5704.592285
624.593750	5701.758789
623.380859	5694.893555
622.168945	5717.013184
620.955078	5740.867188
619.742188	5739.529297
618.528320	5744.881348
617.314453	5742.210938
616.100586	5766.202148
614.885742	5781.975586
613.671875	5786.315430
612.456055	5805.742188
611.241211	5812.879883
610.025391	5814.054199
608.809570	5794.478516
607.593750	5816.765625
606.376953	5831.680176
605.160156	5836.192383
603.943359	5842.191406
602.726562	5845.575195
601.508789	5839.993164
600.291016	5852.489746
599.072266	5864.780273
597.854492	5856.563477
596.635742	5845.186035
595.416016	5856.296387
594.197266	5865.849121
592.977539	5860.100586
591.757812	5870.656250
590.537109	5865.847656
589.317383	5865.259766
588.096680	5884.102539
586.875000	5883.000977
585.654297	5885.398926
584.432617	5887.878418
583.210938	5890.642578
581.988281	5895.211426
580.765625	5886.937012
579.542969	5903.435547
578.320312	5896.126953
577.096680	5892.518066
575.873047	5922.508301
574.649414	5902.682617
573.425781	5907.370605
572.201172	5906.351562
570.976562	5897.988770
569.750977	5906.512207
568.525391	5936.370117
567.299805	5923.692383
566.074219	5936.314453
564.847656	5950.215332
563.621094	5945.892090
562.394531	5939.614258
561.167969	5949.803223
559.940430	5959.245605
558.712891	5965.527832
557.484375	5962.219727
556.256836	5968.230469
555.028320	5978.369629
553.798828	5990.474609
552.570312	5984.377441
551.340820	5994.195801
550.111328	6017.605469
548.880859	6023.269531
547.650391	6018.723633
546.419922	6008.792480
545.189453	6032.168945
543.958008	6056.887207
542.726562	6037.653320
541.495117	6038.075684
540.262695	6056.090820
539.031250	6068.960449
537.797852	6076.830566
536.565430	6074.474609
535.332031	6103.638184
534.098633	6112.971191
532.865234	6102.867188
531.630859	6138.352051
530.396484	6121.329590
529.162109	6134.932129
527.926758	6129.608398
526.691406	6133.208984
525.456055	6141.253906
524.220703	6153.154785
522.984375	6137.821289
521.748047	6128.600098
520.510742	6144.369629
519.274414	6152.687012
518.037109	6139.117676
516.798828	6146.418457
515.561523	6163.730957
514.323242	6149.505859
513.084961	6149.365234
511.845703	6147.925293
510.606445	6147.825195
509.367188	6163.323242
508.127930	6171.462402
506.887695	6176.796387
505.647461	6187.526367
504.407227	6173.112793
503.166016	6196.105469
501.925781	6212.940430
500.683594	6214.471191
499.442383	6208.542969
498.200195	6195.475098
496.958008	6211.755371
495.714844	6245.461914
494.472656	6235.427246
493.229492	6218.942871
491.985352	6243.940430
490.742188	6263.477539
489.498047	6241.881836
488.253906	6266.200684
487.008789	6262.272949
485.763672	6282.152344
484.518555	6288.500488
483.272461	6303.593750
482.027344	6319.064453
480.781250	6330.698242
479.534180	6336.519043
478.288086	6349.324219
477.041016	6353.216309
475.792969	6338.941406
474.545898	6355.047363
473.297852	6360.562500
472.049805	6386.908691
470.800781	6372.274902
469.551758	6380.804688
468.302734	6384.059570
467.053711	6380.741211
465.803711	6377.505371
464.553711	6409.759277
463.303711	6397.132812
462.052734	6390.213867
460.801758	6386.177734
459.550781	6389.448242
458.298828	6407.888672
457.046875	6399.175781
455.794922	6411.335938
454.541992	6414.856445
453.290039	6382.808594
452.036133	6389.496094
450.783203	6382.416992
449.529297	6379.326660
448.275391	6377.804199
447.021484	6410.350586
445.766602	6417.312988
444.511719	6434.318359
443.256836	6407.666992
442.000977	6409.333984
440.746094	6434.150879
439.489258	6438.290527
438.233398	6424.977539
436.976562	6453.149414
435.719727	6458.456543
434.461914	6462.961426
433.205078	6468.788086
431.947266	6467.024902
430.688477	6481.291992
429.429688	6483.644531
428.170898	6510.902832
426.912109	6512.999023
425.653320	6515.097656
424.393555	6537.875977
423.132812	6544.093750
421.873047	6552.489746
420.612305	6577.623535
419.351562	6559.237305
418.089844	6604.698730
416.829102	6627.575195
415.566406	6630.935059
414.304688	6660.458496
413.041992	6698.554688
411.779297	6679.924805
410.516602	6695.452148
409.252930	6707.239746
407.989258	6720.701172
406.725586	6742.039551
405.460938	6706.679688
404.196289	6715.365234
402.931641	6688.892578
401.666992	6692.257324
400.401367	6679.521484
399.135742	6664.378418
397.869141	6672.498535
396.602539	6677.416992
395.335938	6674.153320
394.069336	6689.228516
392.801758	6687.370117
391.534180	6678.171387
390.266602	6662.051758
388.998047	6665.292480
387.729492	6656.860840
386.460938	6660.015137
385.191406	6662.709473
383.921875	6681.751465
382.652344	6688.266602
381.381836	6682.751953
380.111328	6665.782227
378.840820	6671.307617
377.570312	6684.715332
376.298828	6683.960938
375.027344	6699.458008
373.754883	6698.406250
372.483398	6702.112305
371.209961	6693.223633
369.937500	6712.027344
368.664062	6716.120117
367.390625	6725.805664
366.117188	6718.686035
364.842773	6733.394531
363.568359	6740.364258
362.293945	6753.583984
361.018555	6736.905762
359.743164	6745.252930
358.467773	6727.658203
357.192383	6745.822266
355.916016	6739.055664
354.638672	6741.155762
353.362305	6742.740723
352.084961	6755.978027
350.807617	6740.532715
349.529297	6738.301758
348.251953	6761.534180
346.972656	6755.199219
345.694336	6779.205566
344.415039	6772.232422
343.135742	6755.067383
341.856445	6778.030762
340.576172	6764.439941
339.295898	6776.715820
338.015625	6783.659180
336.734375	6775.320312
335.453125	6785.410156
334.171875	6802.927246
332.889648	6813.708984
331.607422	6811.458496
330.325195	6813.958984
329.041992	6817.417480
327.758789	6815.425781
326.475586	6829.570801
325.192383	6809.230469
323.908203	6823.567383
322.624023	6834.159668
321.338867	6849.158691
320.053711	6874.440430
318.768555	6873.799805
317.483398	6854.432129
316.197266	6872.793945
314.911133	6883.609375
313.624023	6890.675781
312.336914	6916.582031
311.049805	6901.553711
309.762695	6916.497559
308.474609	6931.078613
307.186523	6927.347168
305.898438	6924.926758
304.609375	6932.877441
303.320312	6951.734375
302.031250	6960.794434
300.741211	6948.349121
299.451172	6979.047852
298.161133	6971.556152
296.870117	6992.389648
295.579102	6974.632324
294.288086	6963.503418
292.996094	6962.004883
291.704102	6986.357910
290.412109	6960.472168
289.120117	6964.482422
287.827148	6949.710938
286.533203	6939.128418
285.240234	6929.428223
283.946289	6940.687988
282.652344	6942.744141
281.357422	6955.062500
280.062500	6949.459961
278.767578	6947.809570
277.472656	6939.682129
276.176758	6932.342773
274.880859	6947.791016
273.583984	6986.911133
272.287109	6970.345215
270.990234	6971.565918
269.693359	6994.577148
268.395508	6991.190430
267.097656	6971.718262
265.799805	6995.027832
264.500977	6998.133789
263.202148	6989.765625
261.902344	6973.221680
260.603516	6975.329102
259.303711	6965.137695
258.002930	6985.766602
256.702148	6988.027832
255.401367	6976.710449
254.100586	6985.363770
252.798828	6990.745605
251.497070	7008.385742
250.195312	7015.314453
248.892578	7020.314453
247.589844	7025.766602
246.287109	6998.405273
244.983398	7012.665527
243.679688	7028.373535
242.375977	7012.417480
241.071289	7005.706543
239.766602	7001.040527
238.461914	6993.265625
237.156250	7004.509277
235.850586	7011.992676
234.544922	7016.973145
233.239258	7024.665039
231.932617	7030.023438
230.625000	7030.258789
229.318359	7035.188477
228.010742	7033.145508
226.702148	7048.354004
225.394531	7038.845215
224.085938	7051.256348
222.777344	7031.318848
221.467773	7040.559082
220.158203	7024.677246
218.848633	7024.890625
217.538086	7030.361328
216.227539	7018.339844
214.916992	7032.909668
213.606445	7015.888184
212.294922	7027.199707
210.982422	7031.476074
209.670898	6991.649902
208.358398	7017.094238
207.045898	7023.097168
205.732422	7020.027344
204.418945	7004.315430
203.105469	7039.464355
201.791992	7025.360840
200.477539	7036.983398
199.162109	7045.309570
197.847656	7031.161621
196.532227	7046.125000
195.216797	7047.080566
193.900391	7041.461914
192.583984	7028.386230
191.267578	7032.247559
189.951172	7045.023438
188.633789	7043.592285
187.315430	7036.663086
185.998047	7045.618164
184.679688	7017.103516
183.361328	7028.340332
182.041992	7020.533203
180.722656	7025.124023
179.403320	7012.900391
178.083984	7009.151855
176.763672	7021.943359
175.443359	7001.745117
174.122070	7005.104980
172.800781	7024.382324
171.479492	7004.520996
170.157227	6993.660645
168.834961	7007.893555
167.512695	7005.233887
166.190430	7021.317383
164.867188	7014.284668
163.542969	7018.244629
162.219727	6996.414551
160.895508	7025.653809
159.571289	7044.548340
158.246094	7024.320312
156.920898	7011.260254
155.595703	7016.259766
154.269531	7022.303711
152.943359	6993.408691
151.617188	7013.654785
150.291016	7010.985840
148.963867	7018.142090
147.635742	7026.361328
146.308594	7022.524414
144.980469	7012.128906
143.652344	7005.886230
142.323242	7004.312012
140.994141	6990.379883
139.665039	6992.958496
138.334961	7016.991699
137.004883	7008.524414
135.674805	6971.836914
134.343750	7000.412598
133.012695	6983.397949
131.681641	6994.355469
130.349609	7004.043945
129.017578	6995.953125
127.685547	6984.098633
126.352539	6992.271973
125.019531	6968.880859
123.686523	6961.401855
122.352539	6974.776367
121.018555	6954.389160
119.684570	6955.952148
118.349609	6926.233398
117.014648	6930.896973
115.679688	6929.295898
114.343750	6912.256836
113.007812	6921.563477
111.671875	6930.755371
110.334961	6914.546387
108.998047	6923.696289
107.660156	6921.804199
106.323242	6916.358887
104.984375	6922.672363
103.646484	6916.363770
102.307617	6909.184082
100.968750	6899.870117
99.629883	6893.865234
98.290039	6904.371582
96.950195	6900.933594
95.609375	6870.232422
94.268555	6865.274902
92.927734	6856.007324
91.586914	6836.674805
90.245117	6839.041992
88.903320	6821.943848
87.560547	6841.495117
86.217773	6824.899902
84.875000	6816.115723
83.532227	6829.679688
82.188477	6849.161621
80.843750	6840.351074
79.500000	6831.565430
78.155273	6824.715332
76.810547	6816.503418
75.464844	6816.060059
74.119141	6795.546875
72.773438	6789.943848
71.426758	6794.672363
70.080078	6775.725098
68.733398	6749.020020
67.385742	6736.940430
66.038086	6714.744629
64.690430	6694.175781
63.341797	6667.376953
61.993164	6674.154785
60.644531	6618.615234
59.294922	6544.473145
57.945312	6384.419434
56.595703	6078.420898
55.245117	5661.944824
53.894531	5110.689453
52.542969	4434.530762
51.191406	3780.543213
49.839844	3134.328857
48.488281	2521.773926
47.135742	1939.091675
45.783203	1405.765259
44.429688	940.515808
43.077148	572.538025
41.722656	316.065918
40.369141	164.281860
39.014648	85.332603
37.660156	50.076508
36.304688	35.209419
34.949219	28.839544
33.593750	25.750473
32.237305	23.887060
30.880859	22.374235
29.524414	21.270000
28.166992	20.898575
26.809570	20.348473
25.452148	19.856861
24.093750	19.772926
22.735352	19.290014
21.376953	19.343388
20.017578	18.923134
18.658203	18.781364
17.298828	18.768383
15.938477	18.406700
14.578125	18.356466
13.216797	18.961826
11.855469	19.235031
10.494141	19.275860
9.132812	20.266123
7.770508	21.745010
6.408203	25.576969
5.044922	37.751022
3.681641	67.203445
2.318359	108.153000
0.954102	188.365723
-0.410156	398.908936
-1.774414	474.867279
-3.138672	381.885834
-4.503906	148.416718
-5.870117	49.220104
-7.235352	25.939116
-8.602539	20.568419
-9.968750	18.575964
-11.335938	17.493242
