#Wave	#Intensity
1219.256836	24180.294922
1218.177734	24130.664062
1217.098633	24229.003906
1216.018555	24119.632812
1214.938477	24084.509766
1213.858398	24125.378906
1212.778320	24190.775391
1211.697266	24151.935547
1210.616211	24323.667969
1209.535156	24107.539062
1208.454102	24127.306641
1207.372070	24263.441406
1206.290039	24199.822266
1205.208008	24316.062500
1204.125977	24326.205078
1203.042969	24366.080078
1201.960938	24320.003906
1200.877930	24344.210938
1199.793945	24314.580078
1198.710938	24324.652344
1197.626953	24320.054688
1196.542969	24367.736328
1195.458984	24445.910156
1194.374023	24398.912109
1193.290039	24435.908203
1192.205078	24514.548828
1191.119141	24611.550781
1190.034180	24577.443359
1188.948242	24568.027344
1187.862305	24570.326172
1186.776367	24658.144531
1185.690430	24633.115234
1184.603516	24683.195312
1183.516602	24687.828125
1182.429688	24684.292969
1181.342773	24639.345703
1180.254883	24786.488281
1179.166992	24772.470703
1178.079102	24829.763672
1176.991211	24978.580078
1175.902344	24977.099609
1174.813477	24953.894531
1173.724609	24865.582031
1172.635742	24874.708984
1171.545898	24938.214844
1170.457031	24832.802734
1169.367188	24948.574219
1168.276367	24986.244141
1167.186523	25066.416016
1166.095703	24973.900391
1165.004883	25065.218750
1163.914062	25093.544922
1162.822266	25110.724609
1161.730469	25089.111328
1160.638672	25030.078125
1159.546875	25001.326172
1158.455078	25093.455078
1157.362305	25110.292969
1156.269531	25021.931641
1155.176758	25080.416016
1154.083008	25073.142578
1152.990234	25088.378906
1151.896484	25143.716797
1150.802734	25136.923828
1149.708008	25159.593750
1148.613281	25109.089844
1147.519531	25089.539062
1146.423828	25169.220703
1145.329102	25184.593750
1144.233398	25183.431641
1143.137695	25169.349609
1142.041992	25151.478516
1140.946289	25205.798828
1139.849609	25082.908203
1138.752930	25040.951172
1137.656250	25100.501953
1136.559570	25120.187500
1135.461914	25124.443359
1134.364258	25152.015625
1133.266602	25199.292969
1132.168945	25351.988281
1131.070312	25298.041016
1129.972656	25194.589844
1128.874023	25211.804688
1127.774414	25167.521484
1126.675781	25249.638672
1125.576172	25271.802734
1124.476562	25388.378906
1123.375977	25427.316406
1122.276367	25466.003906
1121.175781	25395.044922
1120.075195	25444.550781
1118.974609	25528.363281
1117.873047	25528.992188
1116.771484	25579.792969
1115.669922	25512.533203
1114.568359	25504.058594
1113.466797	25524.431641
1112.364258	25631.925781
1111.261719	25681.933594
1110.159180	25651.929688
1109.055664	25626.210938
1107.952148	25729.876953
1106.848633	25752.623047
1105.745117	25811.648438
1104.641602	25844.263672
1103.537109	25854.556641
1102.432617	25997.812500
1101.328125	26024.654297
1100.222656	26028.041016
1099.117188	25991.322266
1098.011719	26027.146484
1096.906250	26025.875000
1095.800781	26003.072266
1094.694336	26105.847656
1093.587891	26073.066406
1092.481445	26088.994141
1091.374023	26111.359375
1090.267578	26182.134766
1089.160156	26218.732422
1088.051758	26242.976562
1086.944336	26211.146484
1085.835938	26231.316406
1084.727539	26278.480469
1083.619141	26225.724609
1082.510742	26178.195312
1081.401367	26202.566406
1080.291992	26246.472656
1079.182617	26192.835938
1078.072266	26229.917969
1076.962891	26318.101562
1075.852539	26256.318359
1074.742188	26200.720703
1073.630859	26337.310547
1072.519531	26237.447266
1071.409180	26321.554688
1070.296875	26303.132812
1069.185547	26257.501953
1068.073242	26215.662109
1066.960938	26401.867188
1065.848633	26330.302734
1064.736328	26323.900391
1063.623047	26215.699219
1062.509766	26318.302734
1061.396484	26354.421875
1060.282227	26391.736328
1059.168945	26326.359375
1058.054688	26261.451172
1056.940430	26289.802734
1055.825195	26277.878906
1054.710938	26261.876953
1053.595703	26405.121094
1052.479492	26397.150391
1051.364258	26400.753906
1050.248047	26381.660156
1049.131836	26450.568359
1048.015625	26410.990234
1046.899414	26443.220703
1045.782227	26484.023438
1044.665039	26458.462891
1043.547852	26411.017578
1042.429688	26543.099609
1041.312500	26560.318359
1040.194336	26585.083984
1039.076172	26648.064453
1037.957031	26639.015625
1036.837891	26745.710938
1035.718750	26845.974609
1034.599609	26783.816406
1033.480469	26681.109375
1032.360352	26885.744141
1031.240234	26772.595703
1030.120117	26792.574219
1028.999023	26893.076172
1027.878906	26891.158203
1026.757812	26874.218750
1025.635742	26971.382812
1024.514648	26968.525391
1023.392578	27006.667969
1022.270508	27018.777344
1021.148438	26973.142578
1020.025391	27070.203125
1018.903320	27038.230469
1017.780273	27187.310547
1016.656250	27192.734375
1015.533203	27276.164062
1014.409180	27348.425781
1013.285156	27225.261719
1012.161133	27305.318359
1011.036133	27293.529297
1009.912109	27361.478516
1008.787109	27403.804688
1007.661133	27361.763672
1006.536133	27381.267578
1005.410156	27381.339844
1004.284180	27449.119141
1003.158203	27358.378906
1002.031250	27471.031250
1000.904297	27476.447266
999.777344	27463.292969
998.650391	27478.640625
997.522461	27438.275391
996.394531	27467.246094
995.266602	27488.613281
994.138672	27452.468750
993.009766	27449.751953
991.881836	27411.441406
990.751953	27412.615234
989.623047	27534.998047
988.493164	27441.896484
987.364258	27408.591797
986.233398	27431.451172
985.103516	27446.035156
983.972656	27463.892578
982.841797	27400.357422
981.710938	27494.488281
980.580078	27482.259766
979.448242	27588.966797
978.316406	27511.304688
977.184570	27620.007812
976.052734	27671.976562
974.919922	27480.369141
973.787109	27564.357422
972.654297	27584.220703
971.520508	27660.669922
970.387695	27650.087891
969.253906	27679.433594
968.119141	27741.041016
966.985352	27613.720703
965.850586	27793.708984
964.715820	27753.781250
963.581055	27895.230469
962.445312	27811.613281
961.310547	27920.980469
960.173828	27996.015625
959.038086	27981.472656
957.902344	27949.626953
956.765625	28083.130859
955.628906	28064.250000
954.491211	28114.330078
953.354492	28232.222656
952.216797	28155.851562
951.079102	28289.814453
949.940430	28201.236328
948.802734	28257.388672
947.664062	28279.609375
946.525391	28406.113281
945.385742	28448.082031
944.247070	28340.134766
943.107422	28375.089844
941.967773	28447.244141
940.827148	28531.041016
939.686523	28381.300781
938.545898	28489.005859
937.405273	28666.121094
936.264648	28552.773438
935.123047	28540.074219
933.981445	28673.974609
932.839844	28573.642578
931.697266	28663.601562
930.554688	28697.103516
929.412109	28707.001953
928.269531	28699.744141
927.126953	28676.935547
925.983398	28642.830078
924.839844	28727.691406
923.695312	28736.408203
922.551758	28814.603516
921.407227	28801.466797
920.262695	28883.416016
919.117188	28844.929688
917.972656	28846.396484
916.827148	28854.988281
915.680664	28853.863281
914.535156	28839.726562
913.388672	28780.980469
912.242188	28899.355469
911.095703	28884.505859
909.949219	28872.603516
908.801758	28885.912109
907.654297	28935.699219
906.506836	28895.550781
905.358398	28898.943359
904.209961	28927.232422
903.061523	28956.537109
901.913086	28944.437500
900.763672	28981.107422
899.614258	28886.000000
898.464844	29092.240234
897.315430	29087.765625
896.165039	29123.849609
895.014648	29142.406250
893.864258	29103.953125
892.713867	29055.667969
891.562500	29194.685547
890.411133	29205.916016
889.259766	29279.687500
888.107422	29350.453125
886.955078	29389.542969
885.802734	29300.806641
884.650391	29517.386719
883.498047	29527.951172
882.344727	29455.847656
881.191406	29632.789062
880.037109	29650.339844
878.883789	29687.968750
877.729492	29686.851562
876.575195	29757.222656
875.419922	29723.892578
874.264648	29794.281250
873.110352	29834.447266
871.954102	29902.615234
870.798828	29933.312500
869.642578	29919.556641
868.486328	29992.750000
867.330078	30022.281250
866.172852	30123.513672
865.015625	30124.833984
863.858398	30014.050781
862.701172	30230.693359
861.542969	30118.218750
860.385742	30141.970703
859.226562	30184.248047
858.068359	30223.056641
856.909180	30266.687500
855.750000	30350.455078
854.590820	30357.990234
853.431641	30293.740234
852.271484	30229.892578
851.111328	30305.386719
849.951172	30372.935547
848.790039	30333.509766
847.628906	30357.650391
846.467773	30398.929688
845.306641	30327.968750
844.144531	30437.515625
842.982422	30424.675781
841.820312	30349.855469
840.658203	30368.931641
839.495117	30307.447266
838.332031	30367.111328
837.168945	30446.140625
836.004883	30321.537109
834.841797	30512.662109
833.676758	30454.726562
832.512695	30553.080078
831.348633	30512.125000
830.183594	30492.861328
829.018555	30551.957031
827.852539	30552.007812
826.687500	30581.095703
825.521484	30574.083984
824.354492	30720.214844
823.188477	30742.427734
822.021484	30626.021484
820.854492	30801.972656
819.687500	30746.962891
818.519531	30801.726562
817.352539	30849.052734
816.183594	30883.628906
815.015625	30851.572266
813.846680	30864.140625
812.677734	31115.042969
811.508789	31102.683594
810.339844	31078.724609
809.169922	31135.867188
808.000000	31238.666016
806.830078	31355.667969
805.659180	31262.837891
804.488281	31276.812500
803.317383	31296.601562
802.146484	31426.048828
800.974609	31518.658203
799.802734	31567.111328
798.630859	31498.251953
797.458984	31582.679688
796.286133	31636.404297
795.113281	31703.554688
793.940430	31808.431641
792.766602	31815.988281
791.593750	31805.080078
790.418945	31917.289062
789.245117	31886.804688
788.070312	31906.458984
786.896484	31894.478516
785.720703	31923.785156
784.545898	31869.072266
783.370117	31892.763672
782.194336	32038.732422
781.018555	31963.820312
779.841797	32026.439453
778.665039	32038.429688
777.488281	32155.601562
776.311523	32075.388672
775.133789	32157.691406
773.956055	32183.312500
772.778320	32188.800781
771.600586	32174.480469
770.421875	32080.871094
769.243164	32072.828125
768.064453	32193.259766
766.884766	32121.542969
765.705078	32182.154297
764.525391	32164.539062
763.345703	32233.541016
762.165039	32249.296875
760.984375	32243.732422
759.803711	32263.300781
758.622070	32263.523438
757.440430	32287.890625
756.258789	32370.240234
755.077148	32333.076172
753.894531	32406.167969
752.711914	32483.162109
751.529297	32631.216797
750.346680	32560.646484
749.163086	32526.337891
747.979492	32594.611328
746.795898	32675.255859
745.611328	32696.494141
744.426758	32758.546875
743.242188	32748.085938
742.057617	32803.089844
740.872070	32813.277344
739.686523	32836.957031
738.500977	32966.085938
737.314453	32951.449219
736.128906	33075.738281
734.942383	33012.285156
733.754883	33049.765625
732.568359	33117.378906
731.380859	33171.996094
730.192383	33241.230469
729.004883	33238.054688
727.816406	33364.078125
726.627930	33503.871094
725.439453	33553.531250
724.250000	33540.765625
723.060547	33525.921875
721.871094	33528.519531
720.681641	33595.062500
719.491211	33676.089844
718.300781	33713.328125
717.110352	33713.683594
715.918945	33794.082031
714.727539	33831.406250
713.536133	33830.871094
712.344727	33902.742188
711.152344	33849.437500
709.959961	33948.917969
708.767578	34015.937500
707.574219	34121.574219
706.381836	34110.839844
705.188477	34104.531250
703.994141	34135.328125
702.800781	34146.425781
701.606445	34175.136719
700.411133	34082.781250
699.216797	34268.281250
698.021484	34297.136719
696.826172	34265.777344
695.630859	34300.105469
694.434570	34325.792969
693.238281	34332.250000
692.041992	34357.453125
690.844727	34383.992188
689.648438	34554.386719
688.451172	34482.164062
687.252930	34526.812500
686.055664	34602.199219
684.857422	34564.753906
683.659180	34759.000000
682.459961	34779.953125
681.260742	34723.484375
680.061523	34785.257812
678.862305	34803.199219
677.662109	34806.382812
676.462891	34929.980469
675.261719	35004.664062
674.061523	35082.062500
672.860352	35165.343750
671.659180	35201.855469
670.458008	35151.910156
669.255859	35141.339844
668.053711	35193.351562
666.851562	35275.050781
665.649414	35225.968750
664.446289	35277.238281
663.243164	35340.171875
662.040039	35369.273438
660.835938	35314.972656
659.631836	35554.421875
658.427734	35499.820312
657.222656	35634.929688
656.018555	35675.789062
654.813477	35646.398438
653.607422	35623.636719
652.402344	35725.093750
651.196289	35722.187500
649.990234	35900.816406
648.783203	35805.316406
647.576172	35873.164062
646.369141	35811.152344
645.162109	35955.273438
643.954102	35986.867188
642.746094	36035.101562
641.538086	36060.687500
640.330078	36044.609375
639.121094	36053.167969
637.912109	36056.480469
636.703125	36123.285156
635.493164	36040.753906
634.283203	36121.718750
633.073242	36176.218750
631.862305	36137.765625
630.651367	36107.128906
629.440430	36110.550781
628.229492	36143.472656
627.017578	36165.093750
625.805664	36364.503906
624.593750	36300.503906
623.380859	36291.859375
622.168945	36391.195312
620.955078	36519.929688
619.742188	36524.882812
618.528320	36617.449219
617.314453	36530.019531
616.100586	36632.230469
614.885742	36779.355469
613.671875	36806.058594
612.456055	36845.929688
611.241211	36933.304688
610.025391	36931.656250
608.809570	36825.152344
607.593750	36906.554688
606.376953	37078.945312
605.160156	37100.812500
603.943359	37106.761719
602.726562	37161.648438
601.508789	37150.960938
600.291016	37257.898438
599.072266	37378.687500
597.854492	37362.222656
596.635742	37356.796875
595.416016	37378.824219
594.197266	37451.269531
592.977539	37443.121094
591.757812	37529.562500
590.537109	37521.351562
589.317383	37530.835938
588.096680	37709.980469
586.875000	37703.496094
585.654297	37691.441406
584.432617	37686.402344
583.210938	37788.406250
581.988281	37819.832031
580.765625	37722.964844
579.542969	37855.363281
578.320312	37862.281250
577.096680	37839.410156
575.873047	38051.375000
574.649414	37924.691406
573.425781	37953.625000
572.201172	37934.875000
570.976562	37933.792969
569.750977	37991.996094
568.525391	37913.605469
567.299805	38107.496094
566.074219	37881.824219
564.847656	37996.925781
563.621094	37980.710938
562.394531	37929.042969
561.167969	37959.531250
559.940430	38113.980469
558.712891	38061.714844
557.484375	38055.324219
556.256836	38145.035156
555.028320	38209.781250
553.798828	38348.128906
552.570312	38225.316406
551.340820	38357.667969
550.111328	38517.421875
548.880859	38513.492188
547.650391	38417.527344
546.419922	38477.164062
545.189453	38571.636719
543.958008	38658.703125
542.726562	38659.242188
541.495117	38708.089844
540.262695	38782.691406
539.031250	38819.734375
537.797852	38909.230469
536.565430	38944.457031
535.332031	39079.386719
534.098633	39153.699219
532.865234	39115.562500
531.630859	39331.906250
530.396484	39206.378906
529.162109	39322.371094
527.926758	39366.058594
526.691406	39403.640625
525.456055	39380.937500
524.220703	39496.441406
522.984375	39407.359375
521.748047	39401.730469
520.510742	39487.238281
519.274414	39469.265625
518.037109	39428.796875
516.798828	39527.421875
515.561523	39601.691406
514.323242	39543.019531
513.084961	39570.574219
511.845703	39544.570312
510.606445	39466.675781
509.367188	39607.289062
508.127930	39665.488281
506.887695	39763.054688
505.647461	39789.742188
504.407227	39690.160156
503.166016	39889.265625
501.925781	39891.253906
500.683594	39923.039062
499.442383	39919.105469
498.200195	39874.621094
496.958008	39905.386719
495.714844	40074.789062
494.472656	40116.992188
493.229492	40030.312500
491.985352	40180.003906
490.742188	40284.421875
489.498047	40190.605469
488.253906	40320.273438
487.008789	40345.308594
485.763672	40410.574219
484.518555	40430.527344
483.272461	40554.515625
482.027344	40656.902344
480.781250	40707.386719
479.534180	40774.824219
478.288086	40914.386719
477.041016	40920.882812
475.792969	40895.832031
474.545898	41032.585938
473.297852	40978.757812
472.049805	41076.515625
470.800781	41126.457031
469.551758	41145.847656
468.302734	41156.773438
467.053711	41154.378906
465.803711	41095.582031
464.553711	41295.132812
463.303711	41272.175781
462.052734	41246.992188
460.801758	41193.351562
459.550781	41235.429688
458.298828	41397.214844
457.046875	41393.652344
455.794922	41449.371094
454.541992	41477.429688
453.290039	41311.089844
452.036133	41348.816406
450.783203	41290.238281
449.529297	41295.582031
448.275391	41294.562500
447.021484	41469.535156
445.766602	41512.863281
444.511719	41573.546875
443.256836	41566.304688
442.000977	41495.570312
440.746094	41655.421875
439.489258	41627.613281
438.233398	41604.281250
436.976562	41782.511719
435.719727	41792.839844
434.461914	41793.925781
433.205078	41863.960938
431.947266	41874.062500
430.688477	41959.683594
429.429688	41938.433594
428.170898	42130.453125
426.912109	42099.921875
425.653320	42035.281250
424.393555	42215.046875
423.132812	42290.578125
421.873047	42326.453125
420.612305	42414.925781
419.351562	42313.003906
418.089844	42568.375000
416.829102	42677.390625
415.566406	42560.160156
414.304688	42715.203125
413.041992	42902.265625
411.779297	42651.351562
410.516602	42745.109375
409.252930	42818.539062
407.989258	42954.390625
406.725586	43092.648438
405.460938	42960.355469
404.196289	42780.632812
402.931641	42981.636719
401.666992	43088.085938
400.401367	42977.714844
399.135742	42699.609375
397.869141	43106.394531
396.602539	42873.710938
395.335938	42910.929688
394.069336	43000.183594
392.801758	43024.316406
391.534180	43067.613281
390.266602	42974.203125
388.998047	42947.769531
387.729492	42943.843750
386.460938	42991.972656
385.191406	43063.421875
383.921875	43183.937500
382.652344	43184.355469
381.381836	43157.441406
380.111328	43042.945312
378.840820	43096.195312
377.570312	43138.316406
376.298828	43205.042969
375.027344	43297.570312
373.754883	43306.710938
372.483398	43342.257812
371.209961	43326.660156
369.937500	43425.671875
368.664062	43443.132812
367.390625	43509.742188
366.117188	43440.542969
364.842773	43572.343750
363.568359	43670.652344
362.293945	43730.972656
361.018555	43605.031250
359.743164	43682.421875
358.467773	43587.187500
357.192383	43750.429688
355.916016	43681.457031
354.638672	43698.996094
353.362305	43718.546875
352.084961	43790.898438
350.807617	43687.500000
349.529297	43771.343750
348.251953	43899.371094
346.972656	43856.199219
345.694336	44016.917969
344.415039	43948.855469
343.135742	43811.937500
341.856445	44009.628906
340.576172	43931.835938
339.295898	43954.273438
338.015625	44010.804688
336.734375	43948.898438
335.453125	44116.878906
334.171875	44124.875000
332.889648	44197.644531
331.607422	44191.058594
330.325195	44204.007812
329.041992	44245.453125
327.758789	44222.437500
326.475586	44357.894531
325.192383	44207.054688
323.908203	44214.582031
322.624023	44323.832031
321.338867	44404.269531
320.053711	44563.363281
318.768555	44562.375000
317.483398	44425.792969
316.197266	44519.269531
314.911133	44580.820312
313.624023	44688.675781
312.336914	44828.058594
311.049805	44717.957031
309.762695	44821.031250
308.474609	44901.531250
307.186523	44854.816406
305.898438	44762.671875
304.609375	44816.839844
303.320312	44893.070312
302.031250	44942.531250
300.741211	44835.792969
299.451172	44991.207031
298.161133	44890.984375
296.870117	44977.238281
295.579102	44899.191406
294.288086	44847.652344
292.996094	44897.597656
291.704102	45056.703125
290.412109	44943.183594
289.120117	45008.496094
287.827148	44911.460938
286.533203	44908.886719
285.240234	44861.375000
283.946289	44941.839844
282.652344	45051.007812
281.357422	45095.320312
280.062500	45097.855469
278.767578	45047.484375
277.472656	45020.816406
276.176758	44971.949219
274.880859	45034.921875
273.583984	45303.714844
272.287109	45142.449219
270.990234	45172.457031
269.693359	45362.097656
268.395508	45289.062500
267.097656	45249.750000
265.799805	45385.847656
264.500977	45438.851562
263.202148	45394.171875
261.902344	45248.984375
260.603516	45219.097656
259.303711	45204.054688
258.002930	45328.398438
256.702148	45317.328125
255.401367	45179.136719
254.100586	45355.039062
252.798828	45326.082031
251.497070	45430.796875
250.195312	45526.324219
248.892578	45556.429688
247.589844	45571.730469
246.287109	45406.000000
244.983398	45506.957031
243.679688	45573.460938
242.375977	45557.984375
241.071289	45440.773438
239.766602	45390.363281
238.461914	45383.519531
237.156250	45430.566406
235.850586	45464.988281
234.544922	45466.054688
233.239258	45525.468750
231.932617	45621.441406
230.625000	45598.421875
229.318359	45557.867188
228.010742	45603.425781
226.702148	45640.148438
225.394531	45584.460938
224.085938	45611.015625
222.777344	45489.492188
221.467773	45581.015625
220.158203	45471.140625
218.848633	45429.789062
217.538086	45600.460938
216.227539	45497.167969
214.916992	45529.097656
213.606445	45431.226562
212.294922	45537.468750
210.982422	45528.730469
209.670898	45338.191406
208.358398	45490.328125
207.045898	45509.953125
205.732422	45468.304688
204.418945	45331.632812
203.105469	45571.839844
201.791992	45507.085938
200.477539	45551.597656
199.162109	45678.132812
197.847656	45550.992188
196.532227	45610.472656
195.216797	45614.582031
193.900391	45516.199219
192.583984	45479.175781
191.267578	45483.230469
189.951172	45507.855469
188.633789	45460.609375
187.315430	45440.019531
185.998047	45545.816406
184.679688	45302.078125
183.361328	45395.292969
182.041992	45358.101562
180.722656	45352.390625
179.403320	45276.972656
178.083984	45222.707031
176.763672	45241.789062
175.443359	45152.960938
174.122070	45222.609375
172.800781	45335.460938
171.479492	45199.820312
170.157227	45105.484375
168.834961	45185.347656
167.512695	45221.792969
166.190430	45205.351562
164.867188	45256.398438
163.542969	45254.218750
162.219727	45152.890625
160.895508	45298.433594
159.571289	45382.933594
158.246094	45233.019531
156.920898	45142.687500
155.595703	45191.738281
154.269531	45212.035156
152.943359	44946.753906
151.617188	45096.203125
150.291016	45091.777344
148.963867	45001.265625
147.635742	45057.917969
146.308594	45031.062500
144.980469	44960.035156
143.652344	44945.222656
142.323242	45000.457031
140.994141	44875.269531
139.665039	44858.062500
138.334961	45013.074219
137.004883	44961.804688
135.674805	44743.578125
134.343750	44899.269531
133.012695	44788.164062
131.681641	44831.863281
130.349609	44905.183594
129.017578	44907.562500
127.685547	44776.476562
126.352539	44783.933594
125.019531	44672.140625
123.686523	44519.273438
122.352539	44588.351562
121.018555	44438.835938
119.684570	44456.761719
118.349609	44294.453125
117.014648	44305.589844
115.679688	44208.003906
114.343750	44162.902344
113.007812	44186.386719
111.671875	44295.703125
110.334961	44198.132812
108.998047	44275.933594
107.660156	44192.296875
106.323242	44161.785156
104.984375	44215.257812
103.646484	44159.726562
102.307617	44029.148438
100.968750	43992.156250
99.629883	43957.503906
98.290039	43997.261719
96.950195	43899.765625
95.609375	43741.839844
94.268555	43667.531250
92.927734	43545.414062
91.586914	43443.390625
90.245117	43440.359375
88.903320	43299.660156
87.560547	43427.359375
86.217773	43360.265625
84.875000	43328.222656
83.532227	43398.300781
82.188477	43506.718750
80.843750	43495.761719
79.500000	43321.441406
78.155273	43294.906250
76.810547	43252.042969
75.464844	43178.640625
74.119141	43119.160156
72.773438	43007.519531
71.426758	43017.644531
70.080078	42893.906250
68.733398	42747.093750
67.385742	42696.000000
66.038086	42532.058594
64.690430	42362.859375
63.341797	42144.160156
61.993164	42145.585938
60.644531	41804.886719
59.294922	41739.921875
57.945312	40861.738281
56.595703	39191.683594
55.245117	37006.535156
53.894531	33425.453125
52.542969	28790.058594
51.191406	24109.476562
49.839844	19551.144531
48.488281	15375.920898
47.135742	11673.236328
45.783203	8489.739258
44.429688	5787.172363
43.077148	3644.653564
41.722656	2085.218506
40.369141	1102.331787
39.014648	562.976746
37.660156	307.877777
36.304688	196.818573
34.949219	148.450958
33.593750	127.461296
32.237305	114.659554
30.880859	106.980064
29.524414	101.680672
28.166992	98.497482
26.809570	95.810860
25.452148	94.485397
24.093750	92.029755
22.735352	91.246216
21.376953	88.061234
20.017578	87.117043
18.658203	86.289612
17.298828	85.130394
15.938477	83.880424
14.578125	83.710129
13.216797	83.631195
11.855469	83.216293
10.494141	81.951439
9.132812	82.428558
7.770508	83.332382
6.408203	86.912796
5.044922	96.780495
3.681641	122.432457
2.318359	182.553223
0.954102	318.077271
-0.410156	508.179352
-1.774414	640.823792
-3.138672	518.276550
-4.503906	291.742310
-5.870117	132.564331
-7.235352	86.580841
-8.602539	76.413513
-9.968750	74.089012
-11.335938	72.273727
