#Wave	#Intensity
1241.645508	11334.030273
1240.570312	11307.637695
1239.496094	11343.096680
1238.420898	11298.888672
1237.345703	11270.483398
1236.269531	11281.619141
1235.194336	11298.711914
1234.118164	11283.331055
1233.041992	11329.579102
1231.964844	11252.110352
1230.888672	11267.105469
1229.811523	11318.473633
1228.734375	11280.825195
1227.657227	11319.295898
1226.579102	11302.300781
1225.500977	11316.448242
1224.422852	11264.218750
1223.344727	11288.148438
1222.266602	11265.764648
1221.187500	11262.534180
1220.108398	11244.146484
1219.029297	11244.683594
1217.949219	11269.053711
1216.870117	11257.566406
1215.790039	11271.779297
1214.709961	11282.060547
1213.628906	11298.753906
1212.548828	11278.203125
1211.467773	11284.582031
1210.386719	11298.932617
1209.304688	11311.266602
1208.223633	11317.664062
1207.141602	11303.401367
1206.059570	11307.000000
1204.977539	11296.349609
1203.894531	11298.523438
1202.811523	11340.277344
1201.728516	11340.896484
1200.645508	11350.775391
1199.561523	11413.944336
1198.478516	11406.864258
1197.394531	11402.839844
1196.309570	11367.320312
1195.225586	11377.513672
1194.140625	11403.271484
1193.055664	11394.866211
1191.970703	11435.134766
1190.885742	11446.945312
1189.799805	11483.178711
1188.713867	11455.854492
1187.627930	11503.366211
1186.541016	11510.096680
1185.455078	11520.659180
1184.368164	11549.030273
1183.281250	11506.546875
1182.193359	11519.961914
1181.106445	11531.501953
1180.018555	11558.509766
1178.930664	11535.643555
1177.841797	11558.252930
1176.753906	11566.316406
1175.665039	11594.914062
1174.576172	11605.505859
1173.487305	11613.241211
1172.397461	11637.873047
1171.307617	11626.263672
1170.217773	11617.239258
1169.127930	11636.750977
1168.037109	11658.717773
1166.947266	11691.081055
1165.856445	11679.810547
1164.764648	11655.384766
1163.673828	11708.792969
1162.582031	11659.980469
1161.490234	11644.375000
1160.398438	11662.486328
1159.305664	11676.551758
1158.213867	11677.100586
1157.121094	11674.713867
1156.027344	11698.182617
1154.934570	11726.738281
1153.840820	11697.008789
1152.747070	11658.138672
1151.653320	11661.462891
1150.559570	11659.552734
1149.464844	11662.766602
1148.370117	11684.396484
1147.275391	11728.986328
1146.180664	11722.919922
1145.084961	11723.391602
1143.989258	11702.115234
1142.893555	11702.538086
1141.797852	11732.781250
1140.701172	11717.611328
1139.604492	11721.695312
1138.507812	11685.276367
1137.411133	11673.423828
1136.313477	11683.522461
1135.215820	11707.392578
1134.118164	11725.475586
1133.020508	11713.637695
1131.921875	11703.345703
1130.823242	11723.903320
1129.724609	11729.732422
1128.625977	11761.895508
1127.526367	11758.975586
1126.426758	11754.643555
1125.327148	11826.077148
1124.227539	11834.811523
1123.127930	11825.993164
1122.027344	11799.007812
1120.926758	11815.147461
1119.825195	11836.504883
1118.724609	11818.737305
1117.623047	11867.926758
1116.521484	11857.385742
1115.419922	11871.927734
1114.317383	11884.976562
1113.214844	11902.618164
1112.112305	11938.160156
1111.009766	11946.745117
1109.907227	11945.153320
1108.803711	11956.438477
1107.700195	11992.164062
1106.596680	11965.000000
1105.492188	11977.441406
1104.387695	11982.570312
1103.283203	12024.921875
1102.178711	12006.806641
1101.074219	12040.753906
1099.968750	12081.065430
1098.863281	12075.374023
1097.757812	12071.625000
1096.651367	12133.910156
1095.545898	12119.791992
1094.439453	12150.514648
1093.332031	12175.147461
1092.225586	12195.049805
1091.118164	12229.258789
1090.010742	12386.662109
1088.903320	12468.489258
1087.795898	12582.601562
1086.687500	12597.140625
1085.579102	12554.336914
1084.470703	12459.569336
1083.361328	12394.387695
1082.252930	12302.658203
1081.143555	12210.875977
1080.033203	12200.587891
1078.923828	12167.297852
1077.813477	12155.430664
1076.703125	12209.254883
1075.592773	12182.581055
1074.482422	12172.830078
1073.371094	12167.798828
1072.259766	12162.656250
1071.148438	12136.160156
1070.036133	12154.494141
1068.924805	12156.778320
1067.812500	12144.101562
1066.700195	12145.665039
1065.586914	12143.700195
1064.473633	12133.274414
1063.360352	12140.446289
1062.247070	12144.957031
1061.133789	12126.022461
1060.019531	12165.622070
1058.905273	12183.839844
1057.791016	12154.692383
1056.676758	12122.522461
1055.561523	12179.521484
1054.446289	12130.088867
1053.331055	12149.205078
1052.214844	12173.509766
1051.099609	12167.273438
1049.983398	12146.251953
1048.866211	12181.159180
1047.750000	12176.610352
1046.632812	12206.878906
1045.515625	12184.660156
1044.398438	12190.510742
1043.281250	12212.988281
1042.163086	12191.926758
1041.044922	12249.695312
1039.926758	12266.375977
1038.807617	12286.900391
1037.689453	12322.075195
1036.570312	12271.700195
1035.450195	12319.545898
1034.331055	12321.110352
1033.210938	12376.395508
1032.090820	12387.597656
1030.970703	12377.985352
1029.849609	12387.879883
1028.729492	12412.908203
1027.608398	12452.357422
1026.486328	12423.590820
1025.365234	12478.243164
1024.243164	12487.416016
1023.121094	12485.810547
1021.999023	12487.961914
1020.875977	12497.164062
1019.753906	12522.196289
1018.630859	12534.345703
1017.506836	12532.696289
1016.383789	12527.936523
1015.259766	12507.169922
1014.135742	12520.414062
1013.011719	12597.348633
1011.886719	12557.192383
1010.761719	12546.343750
1009.636719	12559.803711
1008.511719	12571.856445
1007.385742	12578.926758
1006.260742	12546.693359
1005.134766	12602.812500
1004.007812	12580.527344
1002.881836	12615.933594
1001.754883	12603.413086
1000.627930	12608.327148
999.500000	12616.494141
998.373047	12567.809570
997.245117	12588.544922
996.117188	12586.872070
994.988281	12614.933594
993.860352	12601.285156
992.731445	12595.400391
991.602539	12623.468750
990.472656	12557.961914
989.343750	12594.486328
988.213867	12596.405273
987.083984	12611.738281
985.953125	12588.798828
984.823242	12629.629883
983.692383	12631.196289
982.560547	12612.357422
981.429688	12623.936523
980.297852	12648.228516
979.166016	12596.500000
978.034180	12644.197266
976.902344	12662.426758
975.769531	12635.109375
974.636719	12702.964844
973.503906	12661.845703
972.370117	12653.032227
971.236328	12677.356445
970.102539	12714.770508
968.968750	12726.385742
967.834961	12690.952148
966.700195	12699.649414
965.565430	12734.200195
964.429688	12762.595703
963.294922	12712.916992
962.159180	12749.337891
961.023438	12846.696289
959.887695	12782.397461
958.750977	12792.733398
957.614258	12880.813477
956.477539	12825.387695
955.340820	12859.875977
954.203125	12906.362305
953.065430	12913.243164
951.927734	12907.963867
950.790039	12919.939453
949.651367	12906.598633
948.512695	12940.857422
947.374023	12973.716797
946.234375	13018.432617
945.095703	13021.638672
943.956055	13057.015625
942.815430	13045.201172
941.675781	13062.256836
940.535156	13060.405273
939.394531	13058.607422
938.253906	13072.755859
937.112305	13061.300781
935.971680	13107.306641
934.830078	13096.024414
933.687500	13114.241211
932.545898	13094.398438
931.403320	13142.130859
930.260742	13113.418945
929.117188	13118.993164
927.974609	13125.829102
926.831055	13134.521484
925.687500	13114.728516
924.542969	13122.011719
923.399414	13068.514648
922.254883	13146.918945
921.110352	13142.761719
919.964844	13138.177734
918.819336	13124.482422
917.673828	13131.228516
916.528320	13114.054688
915.382812	13141.082031
914.236328	13132.752930
913.089844	13176.889648
911.943359	13141.765625
910.795898	13181.255859
909.648438	13120.172852
908.500977	13188.285156
907.353516	13193.929688
906.205078	13156.596680
905.056641	13197.514648
903.908203	13225.154297
902.759766	13221.015625
901.610352	13207.153320
900.460938	13244.854492
899.311523	13231.083984
898.162109	13232.453125
897.011719	13224.845703
895.861328	13266.298828
894.710938	13268.218750
893.559570	13273.321289
892.408203	13311.803711
891.256836	13314.552734
890.105469	13343.013672
888.953125	13349.595703
887.801758	13328.906250
886.648438	13391.201172
885.496094	13400.957031
884.342773	13402.402344
883.190430	13405.020508
882.036133	13435.091797
880.882812	13483.128906
879.728516	13499.295898
878.574219	13519.578125
877.419922	13523.310547
876.265625	13489.039062
875.110352	13529.851562
873.955078	13568.060547
872.799805	13583.426758
871.643555	13599.795898
870.487305	13605.119141
869.331055	13585.604492
868.174805	13648.535156
867.017578	13653.308594
865.860352	13639.989258
864.703125	13661.179688
863.545898	13636.566406
862.387695	13682.317383
861.229492	13689.323242
860.071289	13656.133789
858.912109	13736.063477
857.753906	13715.469727
856.594727	13749.508789
855.434570	13741.447266
854.275391	13716.485352
853.115234	13740.222656
851.955078	13726.539062
850.793945	13767.975586
849.633789	13739.036133
848.472656	13781.819336
847.311523	13759.936523
846.149414	13731.365234
844.987305	13783.593750
843.826172	13745.455078
842.663086	13741.466797
841.500977	13774.645508
840.337891	13768.533203
839.174805	13721.383789
838.011719	13737.137695
836.847656	13804.902344
835.683594	13792.127930
834.519531	13771.000977
833.355469	13759.483398
832.190430	13803.504883
831.025391	13827.595703
829.860352	13769.145508
828.694336	13791.389648
827.528320	13801.634766
826.362305	13839.993164
825.196289	13852.815430
824.030273	13872.347656
822.863281	13835.661133
821.696289	13865.771484
820.528320	13900.418945
819.361328	13927.360352
818.193359	13964.062500
817.024414	13968.716797
815.856445	13981.708008
814.687500	14015.369141
813.518555	14023.622070
812.349609	14025.394531
811.179688	14016.021484
810.009766	14061.189453
808.839844	14042.920898
807.669922	14077.031250
806.499023	14117.023438
805.328125	14116.675781
804.157227	14156.489258
802.986328	14172.239258
801.814453	14224.639648
800.642578	14210.583984
799.470703	14256.437500
798.297852	14277.586914
797.125000	14281.069336
795.952148	14298.114258
794.779297	14285.562500
793.605469	14291.428711
792.431641	14331.160156
791.257812	14326.712891
790.083008	14320.190430
788.909180	14318.456055
787.734375	14351.834961
786.558594	14379.565430
785.383789	14365.108398
784.208008	14377.990234
783.032227	14390.181641
781.855469	14395.334961
780.679688	14420.856445
779.502930	14418.050781
778.326172	14405.976562
777.148438	14440.578125
775.970703	14496.020508
774.792969	14453.395508
773.615234	14425.333984
772.436523	14459.026367
771.257812	14462.219727
770.079102	14459.718750
768.900391	14460.771484
767.720703	14460.208984
766.541016	14472.017578
765.361328	14442.924805
764.180664	14445.649414
763.000000	14483.640625
761.819336	14457.922852
760.638672	14492.870117
759.457031	14492.716797
758.275391	14482.526367
757.093750	14491.841797
755.912109	14507.335938
754.729492	14523.682617
753.546875	14516.119141
752.363281	14551.597656
751.180664	14613.810547
749.997070	14594.988281
748.813477	14611.001953
747.628906	14618.060547
746.445312	14632.299805
745.260742	14639.933594
744.075195	14659.757812
742.890625	14695.125977
741.705078	14690.733398
740.519531	14706.108398
739.333984	14743.265625
738.147461	14765.649414
736.960938	14788.116211
735.774414	14772.076172
734.586914	14814.739258
733.399414	14845.920898
732.211914	14888.611328
731.024414	14897.046875
729.835938	14896.566406
728.647461	14923.750000
727.458984	14954.450195
726.270508	14981.795898
725.081055	14952.788086
723.891602	15018.847656
722.702148	15055.005859
721.511719	15030.106445
720.321289	15035.940430
719.130859	15048.210938
717.940430	15075.129883
716.749023	15094.189453
715.557617	15129.707031
714.366211	15198.279297
713.173828	15177.473633
711.981445	15190.973633
710.789062	15200.966797
709.596680	15183.205078
708.403320	15241.313477
707.209961	15238.564453
706.016602	15218.082031
704.822266	15218.979492
703.627930	15221.916992
702.433594	15243.613281
701.239258	15271.759766
700.043945	15272.216797
698.848633	15286.564453
697.653320	15321.760742
696.458008	15327.815430
695.261719	15296.261719
694.065430	15301.344727
692.868164	15333.790039
691.671875	15331.103516
690.474609	15351.450195
689.276367	15350.648438
688.079102	15378.798828
686.880859	15369.698242
685.682617	15357.203125
684.484375	15445.587891
683.285156	15407.263672
682.085938	15482.479492
680.886719	15504.360352
679.686523	15493.224609
678.487305	15466.644531
677.287109	15509.015625
676.085938	15535.327148
674.885742	15583.856445
673.684570	15555.689453
672.482422	15591.701172
671.281250	15593.323242
670.079102	15635.572266
668.876953	15672.253906
667.674805	15706.775391
666.471680	15700.241211
665.268555	15702.710938
664.065430	15701.949219
662.861328	15741.135742
661.657227	15729.599609
660.453125	15723.176758
659.249023	15735.822266
658.043945	15779.194336
656.838867	15754.538086
655.633789	15762.472656
654.428711	15761.616211
653.222656	15773.844727
652.016602	15801.856445
650.809570	15856.042969
649.603516	15834.450195
648.396484	15830.458984
647.188477	15866.716797
645.981445	15920.405273
644.773438	15915.634766
643.565430	15923.525391
642.357422	15887.831055
641.148438	15922.894531
639.939453	15968.224609
638.730469	15940.314453
637.520508	15977.217773
636.310547	15982.730469
635.100586	15965.413086
633.890625	15920.706055
632.679688	15939.823242
631.468750	16024.066406
630.256836	16018.105469
629.045898	16025.795898
627.833984	16034.221680
626.622070	16011.729492
625.409180	16049.371094
624.197266	16086.294922
622.983398	16061.604492
621.770508	16074.341797
620.556641	16094.958008
619.343750	16126.652344
618.128906	16122.041016
616.915039	16166.148438
615.700195	16171.475586
614.485352	16188.917969
613.270508	16235.180664
612.054688	16247.571289
610.838867	16268.419922
609.623047	16278.077148
608.406250	16295.123047
607.189453	16310.409180
605.972656	16299.078125
604.755859	16357.236328
603.538086	16361.149414
602.320312	16376.237305
601.102539	16441.039062
599.883789	16392.376953
598.665039	16439.548828
597.446289	16438.820312
596.226562	16427.240234
595.007812	16445.531250
593.787109	16533.000000
592.567383	16493.097656
591.346680	16512.478516
590.125977	16550.583984
588.905273	16547.783203
587.684570	16528.677734
586.462891	16537.509766
585.241211	16561.666016
584.018555	16577.945312
582.795898	16564.292969
581.573242	16602.699219
580.350586	16610.335938
579.127930	16628.123047
577.904297	16594.498047
576.679688	16622.082031
575.456055	16677.496094
574.231445	16655.949219
573.006836	16630.152344
571.782227	16627.177734
570.556641	16671.310547
569.331055	16701.751953
568.105469	16681.742188
566.878906	16664.287109
565.652344	16722.390625
564.425781	16726.996094
563.198242	16730.359375
561.971680	16722.113281
560.744141	16804.548828
559.515625	16833.720703
558.288086	16798.285156
557.059570	16902.242188
555.830078	16853.574219
554.601562	16900.886719
553.372070	16895.839844
552.142578	16928.744141
550.912109	16938.814453
549.682617	16977.634766
548.452148	16965.720703
547.220703	16980.152344
545.990234	17009.718750
544.758789	17011.720703
543.526367	17015.867188
542.294922	17056.687500
541.062500	17085.867188
539.830078	17092.570312
538.596680	17114.689453
537.364258	17128.824219
536.130859	17135.613281
534.896484	17177.695312
533.663086	17207.605469
532.428711	17221.738281
531.193359	17242.544922
529.958984	17232.263672
528.723633	17271.988281
527.488281	17287.718750
526.251953	17328.056641
525.016602	17319.935547
523.780273	17259.277344
522.542969	17287.832031
521.306641	17339.900391
520.069336	17321.406250
518.831055	17266.609375
517.593750	17332.996094
516.355469	17359.785156
515.117188	17297.828125
513.877930	17354.095703
512.638672	17315.666016
511.399414	17344.250000
510.160156	17337.111328
508.919922	17379.851562
507.679688	17410.550781
506.439453	17431.859375
505.198242	17442.027344
503.958008	17467.093750
502.715820	17472.179688
501.474609	17451.251953
500.232422	17483.156250
498.990234	17474.449219
497.748047	17532.777344
496.504883	17533.748047
495.261719	17563.398438
494.017578	17565.552734
492.774414	17558.193359
491.530273	17563.357422
490.286133	17662.378906
489.041016	17654.125000
487.795898	17653.728516
486.550781	17678.087891
485.305664	17700.062500
484.059570	17769.996094
482.813477	17775.992188
481.566406	17829.160156
480.320312	17850.232422
479.073242	17816.287109
477.825195	17837.638672
476.578125	17841.746094
475.330078	17846.648438
474.082031	17863.173828
472.833008	17953.292969
471.583984	17973.054688
470.334961	17997.919922
469.085938	17969.476562
467.835938	17955.058594
466.585938	18030.060547
465.335938	17995.460938
464.084961	17989.498047
462.833984	18038.916016
461.583008	18036.263672
460.331055	18022.445312
459.079102	18019.000000
457.827148	18009.431641
456.575195	18013.822266
455.322266	18012.310547
454.069336	18056.136719
452.815430	18028.441406
451.561523	17990.652344
450.307617	18058.828125
449.053711	18029.703125
447.798828	18037.076172
446.543945	18068.103516
445.289062	18002.216797
444.033203	18085.136719
442.778320	18114.445312
441.521484	18081.513672
440.265625	18100.841797
439.008789	18158.044922
437.751953	18087.658203
436.494141	18110.007812
435.237305	18149.054688
433.978516	18213.033203
432.720703	18268.144531
431.461914	18192.306641
430.203125	18272.015625
428.944336	18233.308594
427.684570	18282.884766
426.424805	18256.892578
425.165039	18290.814453
423.905273	18335.343750
422.644531	18363.671875
421.382812	18398.662109
420.122070	18441.867188
418.860352	18459.800781
417.598633	18505.037109
416.336914	18458.162109
415.074219	18466.816406
413.811523	18478.589844
412.547852	18500.917969
411.285156	18505.343750
410.021484	18569.642578
408.756836	18592.054688
407.493164	18577.066406
406.228516	18542.333984
404.963867	18533.308594
403.698242	18568.216797
402.432617	18577.210938
401.166992	18622.833984
399.900391	18591.876953
398.634766	18617.277344
397.367188	18587.207031
396.100586	18632.730469
394.833008	18650.886719
393.565430	18645.062500
392.297852	18624.808594
391.029297	18689.691406
389.760742	18717.355469
388.492188	18763.669922
387.222656	18724.861328
385.953125	18742.212891
384.683594	18706.167969
383.413086	18769.507812
382.142578	18752.244141
380.872070	18762.552734
379.600586	18792.041016
378.329102	18824.593750
377.057617	18800.816406
375.786133	18838.853516
374.513672	18900.812500
373.241211	18899.501953
371.967773	18967.644531
370.695312	18948.126953
369.421875	18921.177734
368.147461	18996.029297
366.873047	18959.275391
365.598633	19001.841797
364.324219	19021.056641
363.048828	19017.968750
361.773438	19048.548828
360.498047	19068.025391
359.221680	19085.039062
357.946289	19088.894531
356.668945	19113.351562
355.392578	19099.830078
354.115234	19079.488281
352.837891	19106.169922
351.559570	19066.806641
350.281250	19059.435547
349.002930	19115.023438
347.724609	19121.923828
346.445312	19169.826172
345.166016	19169.236328
343.885742	19122.537109
342.605469	19141.642578
341.325195	19157.964844
340.044922	19190.832031
338.763672	19253.339844
337.482422	19209.923828
336.201172	19255.746094
334.918945	19278.296875
333.636719	19279.947266
332.354492	19268.685547
331.071289	19301.187500
329.788086	19344.792969
328.504883	19377.310547
327.220703	19370.406250
325.936523	19434.355469
324.652344	19417.146484
323.368164	19465.421875
322.083008	19436.685547
320.796875	19433.224609
319.511719	19447.927734
318.225586	19525.451172
316.939453	19502.060547
315.652344	19512.816406
314.366211	19496.402344
313.078125	19510.664062
311.791016	19503.429688
310.502930	19535.746094
309.214844	19543.595703
307.926758	19582.810547
306.637695	19565.337891
305.348633	19559.566406
304.058594	19523.896484
302.769531	19527.847656
301.479492	19545.232422
300.188477	19634.097656
298.897461	19602.130859
297.606445	19603.191406
296.315430	19671.615234
295.023438	19663.431641
293.731445	19621.847656
292.439453	19693.177734
291.146484	19710.609375
289.854492	19698.708984
288.560547	19686.740234
287.267578	19724.292969
285.973633	19713.789062
284.678711	19794.552734
283.384766	19829.675781
282.089844	19796.648438
280.794922	19836.529297
279.499023	19888.691406
278.203125	19919.669922
276.907227	19929.027344
275.610352	19954.494141
274.314453	19954.007812
273.016602	19875.447266
271.719727	19908.501953
270.421875	19960.896484
269.124023	19925.980469
267.825195	19906.380859
266.526367	19870.318359
265.227539	19892.048828
263.928711	19897.125000
262.628906	19900.255859
261.329102	19920.255859
260.028320	19945.523438
258.728516	19951.814453
257.427734	19951.833984
256.125977	19954.835938
254.824219	19938.820312
253.522461	19993.875000
252.220703	19948.035156
250.917969	19987.824219
249.615234	19925.736328
248.312500	19962.845703
247.008789	19936.710938
245.705078	19948.375000
244.400391	19989.400391
243.096680	19965.314453
241.791992	20001.585938
240.486328	19961.707031
239.181641	20013.910156
237.875000	20012.710938
236.569336	19962.138672
235.262695	20029.097656
233.956055	20050.835938
232.649414	20053.867188
231.341797	20007.052734
230.034180	20078.828125
228.726562	20051.710938
227.417969	20114.376953
226.109375	20141.773438
224.800781	20106.712891
223.491211	20135.093750
222.181641	20130.554688
220.872070	20109.398438
219.561523	20090.796875
218.250977	20114.886719
216.940430	20117.947266
215.628906	20114.708984
214.317383	20131.130859
213.005859	20157.298828
211.693359	20105.714844
210.380859	20142.591797
209.068359	20148.787109
207.754883	20144.732422
206.441406	20129.091797
205.127930	20140.042969
203.814453	20147.089844
202.500000	20142.556641
201.184570	20169.066406
199.870117	20208.080078
198.554688	20167.419922
197.238281	20155.226562
195.922852	20188.376953
194.606445	20190.648438
193.289062	20205.482422
191.972656	20204.191406
190.655273	20229.810547
189.337891	20188.060547
188.019531	20253.814453
186.701172	20287.582031
185.382812	20206.861328
184.063477	20181.953125
182.744141	20196.777344
181.424805	20190.363281
180.104492	20161.496094
178.784180	20194.888672
177.463867	20192.705078
176.142578	20200.470703
174.821289	20225.291016
173.500000	20201.183594
172.177734	20184.001953
170.855469	20184.394531
169.533203	20186.517578
168.209961	20143.947266
166.886719	20191.669922
165.563477	20272.673828
164.239258	20267.191406
162.915039	20177.107422
161.590820	20267.597656
160.265625	20245.351562
158.940430	20261.996094
157.615234	20334.093750
156.289062	20324.460938
154.962891	20280.699219
153.636719	20325.316406
152.309570	20272.576172
150.982422	20238.082031
149.655273	20295.705078
148.327148	20227.322266
146.999023	20264.154297
145.670898	20220.705078
144.341797	20226.285156
143.012695	20229.968750
141.683594	20212.994141
140.353516	20237.078125
139.023438	20244.537109
137.693359	20222.968750
136.362305	20209.628906
135.031250	20212.712891
133.700195	20191.626953
132.368164	20223.142578
131.036133	20218.751953
129.703125	20191.001953
128.371094	20189.101562
127.037109	20157.675781
125.704102	20214.376953
124.370117	20216.904297
123.036133	20170.558594
121.702148	20118.394531
120.367188	20132.941406
119.032227	20086.734375
117.696289	20087.875000
116.361328	20046.441406
115.024414	20070.443359
113.688477	20029.572266
112.351562	20025.816406
111.014648	20047.650391
109.676758	20105.027344
108.339844	20111.519531
107.000977	20084.093750
105.663086	20099.330078
104.324219	20111.013672
102.985352	20093.158203
101.645508	20079.660156
100.305664	20085.773438
98.965820	20085.683594
97.625977	20039.943359
96.285156	19985.353516
94.944336	19974.640625
93.602539	19948.517578
92.260742	19928.853516
90.918945	19865.207031
89.576172	19939.046875
88.233398	19882.087891
86.890625	19901.080078
85.546875	19889.357422
84.203125	19860.634766
82.859375	19882.671875
81.514648	19935.373047
80.169922	19810.427734
78.825195	19840.798828
77.479492	19849.517578
76.133789	19866.236328
74.788086	19866.763672
73.441406	19867.636719
72.094727	19830.951172
70.748047	19851.726562
69.400391	19769.105469
68.052734	19692.835938
66.705078	19688.617188
65.356445	19599.550781
64.007812	19550.121094
62.658203	19494.404297
61.308594	19396.095703
59.958984	19294.753906
58.609375	18969.404297
57.258789	18357.177734
55.908203	17444.388672
54.556641	16109.542969
53.205078	14484.942383
51.853516	12612.547852
50.501953	10784.492188
49.149414	8918.972656
47.796875	7152.436523
46.443359	5429.336426
45.089844	3852.954590
43.736328	2501.128418
42.381836	1473.655396
41.027344	799.858154
39.672852	414.362152
38.317383	227.725037
36.961914	146.385941
35.606445	113.054214
34.250000	98.166626
32.893555	90.562401
31.537109	85.583641
30.179688	80.977623
28.822266	78.511795
27.464844	77.610710
26.106445	74.885025
24.748047	74.313622
23.388672	73.887932
22.029297	72.428062
20.669922	71.450676
19.310547	70.594185
17.950195	69.875092
16.589844	69.729065
